ppg_signal,x,y,z
964945.8,1.1345292628398154,1.208136541542625,1000.219526833004
964907.9,1.4283788181302717,1.0535674582964707,1000.8239326826737
964828.06,1.2084327736122928,1.483402443982406,1000.7412530273156
964687.8,1.00925185208269,1.9715459126982893,1000.6322115743301
964533.44,1.2973854272568244,1.9482768383188378,1000.3175264598564
964545.4,1.1640753038704084,1.5063525603706784,1000.0581054062785
964502.7,1.8815770823207165,1.002477569530467,1000.6291640385526
964434.8,1.0263962380925786,1.1097408054337814,1000.7396126592355
964349.0,1.72128856088447,1.1369432321170723,1000.1938023283274
964270.8,1.416594164097671,1.6978255375479703,1000.4669074244468
964168.3,1.9834872296744173,1.1319476759862428,1000.4855657998758
964066.75,1.1032722604034852,1.1028383001641355,1000.6944743383658
964038.9,1.200123663996038,1.2913543227244302,1000.0750643283405
964025.6,1.9770198970979478,1.8547163995635874,1000.0206364790546
963979.25,1.3552997013843062,1.924892096762261,1000.9085107080373
963933.8,1.726872901754426,1.8604303769229105,1000.1963850607752
963861.1,1.0906739671004948,1.2017680362560932,1000.3740285810064
963758.0,1.0546725149308644,1.7781262385268826,1000.6316069062888
963553.5,1.2913592199777129,1.1786124231420279,1000.5596773200938
963346.94,1.696897619125455,1.3278978433802089,1000.2174589879269
963145.94,1.2208459861917165,1.2885572017456384,1000.1444181007884
963039.3,1.6349585656786232,1.3076550062063546,1000.3214986452733
962809.6,1.0662210204945834,1.8213667733615182,1000.3790757142729
962541.4,1.7028462212920865,1.8628149573482635,1000.7618422073676
962262.6,1.7663854092658096,1.8868248988699938,1000.0591093881474
961957.4,1.2537217216214525,1.6015283594617757,1000.0980977181039
961685.7,1.0387487671031226,1.4530349221302024,1000.5070659903652
961413.8,1.7692070664293191,1.167510662525967,1000.913882952753
961183.8,1.7197358208466351,1.2663635499238624,1000.0867687694924
961001.25,1.0178981594527607,1.6804221011517528,1000.1232900727447
960902.3,1.1527125677664791,1.74614941714598,1000.4078878489777
960848.8,1.3478979584993231,1.5778754633845464,1000.20275876249
960858.0,1.7812801443441901,1.5732839746018639,1000.2631530770985
960947.56,1.0283465500392324,1.4795319723803189,1000.375248742927
960970.0,1.261028166130797,1.990837875773313,1000.0714174714501
960837.8,1.2266210894630305,1.273897764381701,1000.0338331319005
960801.0,1.332765466781685,1.8281752993165947,1000.2984716949971
960640.5,1.0164591448919404,1.5894176321789946,1000.0381636656296
960300.56,1.6517462802935166,1.265890256423556,1000.5071546077771
960041.25,1.8032048508106038,1.3614143360367206,1000.1975951483574
959955.7,1.7032767218581486,1.6147440692294532,1000.2332096067533
959902.25,1.1239779150558553,1.8637385726042366,1000.3836707235129
959875.1,1.8615908727451718,1.0991702934743781,1000.3724342853494
959855.8,1.138632554239508,1.4716341326542173,1000.3978085691791
959875.44,1.1930728465575346,1.9213474792763876,1000.4962399399058
959814.4,1.0777127938057347,1.0431818930620185,1000.0310494060841
959815.1,1.3329601482333524,1.794733305839864,1000.0535142587852
959898.6,1.9540189684108713,1.496120009680038,1000.5479845556983
959970.4,1.0725242473251528,1.5970285639715125,1000.865189567042
960078.9,1.701373697832246,1.218964501680793,1000.8037579699604
960126.7,1.02807762892051,1.4066479281901132,1000.0486128661903
960287.75,1.5022036217343522,1.2953888930640998,1000.6872132427536
960285.9,1.4158842031145769,1.4697579030356906,1000.5486574114541
960287.9,1.7203181202479239,1.604242419901233,1000.0993938539721
960142.8,1.8568779742667774,1.2705935471986467,1000.2377703498839
959853.06,1.3653412242369038,1.0451884123389246,1000.0313705030069
959546.0,1.716503102220555,1.5124580880747494,1000.6030690524381
959414.7,1.9698052937805297,1.7747038612071013,1000.4391548408927
959435.3,1.6446540493994461,1.9355115574480257,1000.1340966443559
959482.5,1.310886964191446,1.943327693310514,1000.7254175610819
959555.5,1.3990056176374366,1.1412478717423524,1000.296237541784
959610.44,1.519474051973322,1.0708677612029018,1000.9817307207311
959654.44,1.463523221573782,1.4320709290541433,1000.7904537470489
959648.9,1.5768604513554614,1.9357461876494741,1000.8269525742617
959724.0,1.9377165946786552,1.8537714389468696,1000.8088707025195
959858.94,1.3340740090606298,1.794454104615614,1000.4490417509595
960003.8,1.8182596685046166,1.6698364629249731,1000.8520527562619
960112.1,1.5486437044468695,1.2579500323923674,1000.2546861439754
960347.3,1.590410664368079,1.9107777942132151,1000.5933330877999
960541.1,1.8103507919354114,1.5024427231193074,1000.2438715827004
960563.94,1.3263922125708927,1.8125981801307423,1000.8450254400926
960572.06,1.5384216282481176,1.6531715118640489,1000.8697670526196
960341.06,1.499334086049949,1.922121088252692,1000.0777569472642
960024.5,1.358795293055322,1.1058752519976138,1000.4522390602259
959699.3,1.4442046580837087,1.3490472902439254,1000.2623719045237
959540.4,1.4294046075502398,1.1475882015906644,1000.6351822997677
959524.56,1.8573685319623408,1.693407080365991,1000.1228165900322
959589.56,1.464383625561489,1.727386762893851,1000.8770991861969
959602.4,1.5479870975463617,1.6059817656436177,1000.6791242806424
959593.9,1.135032703745812,1.0836633677014165,1000.9509705179287
959499.56,1.9041486977527988,1.7196872351212993,1000.7415084304038
959336.9,1.5052053007735178,1.0556690783056966,1000.5540938342274
959279.94,1.2714876587654873,1.3505394749945707,1000.4718667891669
959293.06,1.7367437954843614,1.9076387963498918,1000.8924851450303
959345.06,1.2731259990762176,1.8123268210735843,1000.4965141051417
959354.75,1.406734151110682,1.069079444676669,1000.3550401408846
959320.6,1.4567583312214891,1.7301058874988433,1000.0337870742944
959311.3,1.225078215982864,1.81635637436589,1000.6039934469624
959324.25,1.1133633092978235,1.3056921893990414,1000.8133896437243
959128.7,1.5138053319338272,1.486058171311752,1000.4397817000685
958909.3,1.9704231672592016,1.5433147257440363,1000.0619378768572
958581.0,1.3300943396367462,1.3091507539893146,1000.3650961860209
958027.94,1.478353028826814,1.571319981894847,1000.3065240992513
957538.1,1.3699545458258908,1.6990588832767437,1000.6435527760294
957185.4,1.57870488503951,1.1119679319464049,1000.0293686226663
957065.3,1.223528132276489,1.2493085267958703,1000.5610336380901
956846.7,1.401960444229803,1.581814445493608,1000.4747846321462
956659.4,1.2901842911995685,1.3809863114141077,1000.4128526307707
956467.94,1.284014388476412,1.6584556503684584,1000.1846655200733
956265.0,1.5313714764409758,1.8175323436091655,1000.7729621784619
956041.9,1.4623407847470036,1.7282932624841125,1000.5803118158293
955894.1,1.6710960033143547,1.5639796082389468,1000.7365731251882
955804.4,1.10874185730357,1.084316290815117,1000.1229902965164
955776.0,1.6689145403089187,1.374777620227566,1000.317712753506
955701.3,1.2471691921731858,1.4202055090733046,1000.8822585596944
955653.44,1.2376993283049773,1.9963319347741937,1000.2605449283521
955729.4,1.707302643610574,1.0918306974114644,1000.3559606888007
955725.25,1.065567152992899,1.5554888696198983,1000.8303850220736
955618.9,1.2895886236106233,1.4246784694314472,1000.5761516580742
955424.75,1.8182826118497633,1.418499445468766,1000.6429170283737
955072.44,1.0577618306173513,1.7506878990573478,1000.7561948060747
954666.5,1.7808609489354243,1.942026746683208,1000.1469784971727
954514.75,1.138560312720448,1.3656015426338661,1000.8886066814202
954590.4,1.5329852116454488,1.2593598736735447,1000.6354678123952
954637.1,1.009322669483185,1.8881460138599744,1000.2380324553814
954683.94,1.8202440606784176,1.1963850694026237,1000.8210768318983
954798.4,1.2582845320072562,1.420546327977667,1000.8971271990057
954830.25,1.3952860791312378,1.9880810061926324,1000.0011502498658
954898.9,1.9697417545148732,1.4972144348309353,1000.2857595373238
955010.9,1.5253105956337913,1.2320329943747939,1000.9973560346649
955230.2,1.9405390982715074,1.7775773324247162,1000.4679789343456
955432.94,1.5428374330387302,1.818968090958955,1000.3158773865514
955610.9,1.0440396839127661,1.8810433815234684,1000.9173804867625
955846.9,1.0154319691236489,1.9999428049955208,1000.6107990639748
956129.06,1.9893711224737751,1.903983742969098,1000.5830758856191
956226.1,1.0763717367637042,1.7022287474011768,1000.2248438902261
956220.7,1.5677302578463004,1.416971612422151,1000.3794922924143
956162.5,1.235077135875309,1.022904714080247,1000.4625865140891
955940.56,1.4726150327331862,1.9372780284357671,1000.5000672565885
955704.75,1.4401319369563654,1.0823548300091221,1000.349179241495
955661.1,1.655108247232961,1.7251383264423947,1000.9804808010559
955786.44,1.714198643847749,1.2590419966500743,1000.6960078868271
955874.9,1.5572437021550463,1.865151268705389,1000.0244027754484
955959.5,1.5787655594779346,1.1454885515863293,1000.8870317037548
956150.4,1.4554898946310222,1.4842760592221296,1000.9277867611302
956300.7,1.9762118605263082,1.9312741688239805,1000.7924521272071
956439.6,1.2155008798490945,1.9650643578670377,1000.5969239255978
956546.75,1.3063212520558118,1.9221671204281088,1000.1428105949924
956759.5,1.8500768130325498,1.65836961968642,1000.3594563311977
956949.25,1.8758700878516943,1.8503089832928241,1000.8026127282967
957137.7,1.349053459131288,1.0424186121727272,1000.3299001684856
957340.1,1.3380971244426014,1.7801565299813347,1000.7961325706676
957546.94,1.5484466777493893,1.1519551845360514,1000.05909313278
957768.25,1.5043668620035968,1.1231029911347061,1000.9971274104233
957849.8,1.7704173158812986,1.4166808772234325,1000.6205313901796
958113.94,1.254028819957989,1.5144906944492282,1000.3300246355785
958083.1,1.8952704751880627,1.3483464863530719,1000.1304526040662
957721.44,1.5533382324071947,1.2224161695589977,1000.8106372124095
957187.3,1.219036097573156,1.1361522307979006,1000.704068019456
956785.2,1.1448951526574396,1.3974258512287654,1000.9542771935262
956608.75,1.6782498415479683,1.2117011268111875,1000.3013675200527
956512.75,1.4207174526173785,1.8492708541809324,1000.1740060160696
956353.25,1.8464905006273669,1.8802714300839738,1000.2972243955396
956260.0,1.2164664511559162,1.8422814821915046,1000.2751866451639
956130.5,1.53290686115328,1.1927062226043992,1000.6143605178829
956028.1,1.8650643067495825,1.176356668761526,1000.9387635499893
955908.8,1.8729429072286874,1.628995458813745,1000.3951141667384
955889.9,1.573201634559156,1.4671860973250679,1000.1273856392788
955894.7,1.8572275352490872,1.9865769187790956,1000.7276512190323
955889.6,1.3835654307757785,1.1344541704020359,1000.4943886504166
955864.2,1.4715530729704358,1.2825173036853195,1000.7432134714153
955826.7,1.7797312965487502,1.6966179452682364,1000.4608264859418
955758.5,1.2369009381231417,1.2995183803827033,1000.1499816334707
955764.1,1.7061246766338192,1.005076932640728,1000.9928436910095
955569.56,1.41529948295064,1.0796233388584933,1000.4202122866008
955289.8,1.171620019045076,1.5575679033219894,1000.6500963452645
955074.9,1.9832929356648878,1.9870045405405514,1000.5000521136932
954635.94,1.1148549062873476,1.2612987080032085,1000.9998333891725
954166.7,1.399059004043054,1.3555332130612514,1000.4198610887278
953891.75,1.4676997255111197,1.1006055837315936,1000.2564939486363
953848.56,1.4034150079226082,1.4812394052644478,1000.1923719602929
953787.6,1.4710979740505417,1.5316505095857997,1000.6872648458558
953725.1,1.8523525857502032,1.0590941152907056,1000.4598501342299
953784.06,1.941153026002219,1.602649779175903,1000.2723400055324
953749.4,1.0593378922874273,1.1447166920854746,1000.5429606251811
953700.06,1.4115150854199527,1.391990946678629,1000.8630042997528
953787.75,1.924446686578062,1.26616992904016,1000.6408168581012
953944.94,1.78657330749422,1.6188875553273294,1000.3208538097177
954067.1,1.9681941889239418,1.419135594607507,1000.0849247333399
954211.94,1.9895479745616247,1.6002257150575954,1000.8956998512881
954402.4,1.4286109879026379,1.520507991242054,1000.6202270371181
954616.4,1.8540540637057508,1.0063619171956448,1000.9321514582005
954770.44,1.1238943389336509,1.4799468261287638,1000.4403524611906
954801.1,1.112129257144325,1.8696975858521754,1000.0322676533335
954797.4,1.9227916586149494,1.0821591527071686,1000.0047372665612
954696.2,1.6148285216968485,1.0849214308055095,1000.1092499372494
954484.75,1.3171239220888193,1.924239437423422,1000.8329834577161
954360.06,1.8583490695993916,1.355045317741208,1000.221766010212
954444.75,1.8718182326029114,1.4820566495009104,1000.2012693005372
954593.56,1.6317678432422253,1.289452930932253,1000.9083203613142
954702.5,1.025478223479526,1.1811569892477447,1000.4040055288251
954815.8,1.266871310451306,1.6886601994306254,1000.4753678059668
955019.2,1.37526705191907,1.8988710222758836,1000.591790527838
955126.9,1.8288091315326067,1.7734715761358837,1000.4807247272087
955227.9,1.0954826767112678,1.7255905371252183,1000.0335359692968
955421.2,1.9058184750365073,1.7931825844260647,1000.3580964714318
955607.3,1.548869856244294,1.7084345236592844,1000.4329461773185
955763.9,1.275236112646073,1.7150919412122922,1000.9583133773633
955929.5,1.8910478205916068,1.0462110041603836,1000.1169235696426
956114.6,1.398993585946995,1.734007077750681,1000.4520460043803
956321.1,1.101892931533862,1.928892700161295,1000.8737987911186
956405.94,1.1460490366486202,1.5240848600407222,1000.0309291885336
956451.44,1.340597786829151,1.308078548376547,1000.0006141384536
956447.44,1.7596772104819882,1.7930909546757796,1000.9182081679911
956246.6,1.104588997651197,1.3878567098506283,1000.1528991013035
955983.1,1.45462731461368,1.1468638630677144,1000.1481653836881
955887.25,1.3529588433181512,1.8773009700334682,1000.2942108240123
955986.06,1.2829487092403544,1.3374660937597476,1000.5988841864502
956070.5,1.4431188180696113,1.960179374211009,1000.2873011222096
956139.44,1.1370670909038525,1.0681867173743913,1000.5837271412385
956293.5,1.1272868726233456,1.750569478574693,1000.3527547798686
956508.75,1.9837949739663165,1.0480938172349479,1000.9654535836794
956847.0,1.8342585306151575,1.1019698425054916,1000.8316650561203
957074.0,1.2755755385558896,1.7799825011342287,1000.746230788692
957191.75,1.5561963360880011,1.3189569883993248,1000.6425617976442
957271.4,1.9686567107221598,1.3421276468238355,1000.0009281845389
957301.25,1.8574663854169313,1.2836231582570465,1000.2441899278354
957351.7,1.1406978719330523,1.1639289315067674,1000.5787459148439
957356.7,1.519919878012812,1.0482978748177478,1000.6675940538481
957374.44,1.8053434836475888,1.3278060297837806,1000.7719739421794
957290.06,1.7782078822925218,1.1864093258791975,1000.9026606949126
957205.44,1.4122911826243278,1.6269457116590336,1000.8366941786838
957072.06,1.9998769302097923,1.6592589875758943,1000.1658312737081
956740.5,1.0521470702423774,1.0403142737527218,1000.078765442281
956361.5,1.1693459559631987,1.3609952939385694,1000.9841227741856
956040.5,1.2147924227733584,1.168699017060661,1000.8458855074472
955909.6,1.6275840631039644,1.9150740524262164,1000.4388786337723
955816.06,1.537140557145337,1.161078667566797,1000.0859017647347
955660.56,1.2104438633857177,1.6104083917162217,1000.510567927293
955617.6,1.2713036169468337,1.2752010276538166,1000.611014532335
955519.9,1.23849457923462,1.3124010522875045,1000.2243351371519
955372.0,1.3591024564222605,1.6503834585212411,1000.693891040348
955296.5,1.1612325082802566,1.6101443083786062,1000.7113940746647
955217.0,1.0461233669605274,1.9042337615336025,1000.7274752356716
955201.3,1.6201677010881568,1.7733629910518218,1000.8732611137427
955191.06,1.249197148812559,1.2383465161689104,1000.7562469625376
955139.0,1.4035188026226713,1.0047424894334342,1000.0158871691597
955069.94,1.5674330063695965,1.6904064107262768,1000.5757127615694
955020.7,1.6623755834801606,1.2251241483034239,1000.6372524102509
954932.0,1.0609296894904854,1.5783301682114173,1000.0579519097299
954756.0,1.2687851412258677,1.1354837855451994,1000.9179734959871
954604.7,1.2453578020560023,1.1587691896214214,1000.9154694877775
954207.44,1.8888191491409452,1.1078606515313099,1000.1401711610031
953689.75,1.4565615930014713,1.309936474442782,1000.0020467804503
953390.56,1.6384826989735917,1.5403827319503354,1000.3644833573262
953348.4,1.0803798550597832,1.607807141999484,1000.8842771538366
953391.2,1.2230657888081047,1.997101474837612,1000.2840285276438
953385.56,1.1848432553058994,1.9462882803837953,1000.3511331162847
953457.75,1.9908732811160013,1.32728991339112,1000.6150954898476
953480.9,1.1134572002310357,1.2724775105710537,1000.9926449701325
953431.8,1.2314142400966608,1.8538519273622427,1000.649749595445
953458.0,1.1664827214120597,1.1062868256303844,1000.5055926526529
953611.75,1.6817711255356738,1.2689417794052733,1000.8369394004997
953776.6,1.8507479051546039,1.173665282762223,1000.0004241150424
953938.2,1.5701937214551722,1.9170234730398912,1000.5095854517433
954061.44,1.3483950993255762,1.1181044430168174,1000.4556049268314
954272.1,1.8877707660722292,1.702982516602305,1000.9149246301813
954310.7,1.74046408325358,1.5027147824923122,1000.131425453833
954411.6,1.1356244024349993,1.936160694373113,1000.0148787327457
954405.25,1.4101638974892992,1.8384834882257532,1000.3920244254053
954184.7,1.6424922477194541,1.4603850155943956,1000.6500444821174
954023.6,1.4903530910825724,1.3883124896446768,1000.2996801688104
954075.4,1.0429135198565613,1.4645609871520726,1000.8961307426381
954217.25,1.22669187246946,1.8406591836212431,1000.900551426578
954351.44,1.0402121107554931,1.7584524141541928,1000.875657251437
954467.1,1.8626420458209827,1.5070717709889068,1000.9824382350677
954663.94,1.024116041040725,1.0318942662744637,1000.3802820864727
954824.75,1.5867226873487952,1.4975942840981187,1000.3055317507549
954955.56,1.9324664195365404,1.3620526742310637,1000.2426403096167
955144.44,1.4650586198252111,1.7117050654046775,1000.762049503523
955352.0,1.594613044068204,1.572925446056558,1000.2299092223411
955519.75,1.3524192778089592,1.217657399968867,1000.4114893064276
955750.0,1.6870308813124129,1.4758684382787792,1000.0072737027366
955939.0,1.3722371995710667,1.6200027995482045,1000.9337371561023
956165.6,1.463141275809658,1.3206200506378918,1000.9527396352912
956234.25,1.9292320784698185,1.0214700233328935,1000.5379728984296
956333.1,1.2530163452123229,1.4924858445903502,1000.7284288257686
956361.8,1.5915030821462626,1.5986867184708418,1000.217085575886
956211.06,1.4533295999348232,1.4226735516552407,1000.2838123925524
956060.94,1.0192173647306486,1.696742856023553,1000.5049306448008
956081.06,1.6541427514133042,1.950293086453903,1000.1858969472514
956194.5,1.7331469855519321,1.652663976634014,1000.8816939153498
956336.5,1.394964602582084,1.3459551083174657,1000.9004550864843
956481.94,1.0310205610474872,1.4717835776751071,1000.3683517808171
956650.94,1.8245019329208068,1.4264087694760912,1000.2076334655592
956825.06,1.4696577000512707,1.357927804696593,1000.1603770774727
956922.06,1.2119293787473049,1.1790235659657848,1000.2901366247933
957102.06,1.6326936996871133,1.9766940571354268,1000.9700691998463
957290.0,1.163615777351171,1.8957748864728523,1000.2835619865292
957502.0,1.5644788667309313,1.681662761879355,1000.319817137895
957667.94,1.9818065841780363,1.339443498699292,1000.115208368789
957904.06,1.5294579941404345,1.5747759886158081,1000.3137700778354
958045.06,1.6242868325927264,1.5571089335563826,1000.3691785781168
958041.44,1.1874718564933935,1.1639355447083886,1000.142254852995
957975.5,1.820569337055237,1.4624001893463907,1000.2521781555745
957855.5,1.8480339767752665,1.5671289707174936,1000.7606914240256
957664.06,1.3789809397160186,1.2165791606173346,1000.9303724616703
957449.25,1.332682080879544,1.99984638770432,1000.2142823165248
957259.2,1.9046147656479988,1.6068890730922774,1000.7603286121564
957259.1,1.8991471387164225,1.168805772675178,1000.1730784946642
957220.8,1.956486419606042,1.3304336406725015,1000.3779134778089
957125.4,1.2234333628719365,1.2696759979965944,1000.3844822690334
957062.9,1.6142800686822802,1.582028272490299,1000.7623003984638
957059.0,1.3540694017988055,1.1410611466830098,1000.1984609037331
956963.9,1.8177812324979654,1.951794086285945,1000.3191877835352
956872.3,1.6771385765159734,1.09448576743127,1000.1922597863137
956890.9,1.6916923886652666,1.0713592006127244,1000.0770155171097
956918.9,1.4854561758145002,1.1974769455596577,1000.2784530724282
956912.4,1.6418750821080588,1.2486850140449524,1000.8380309630514
956860.1,1.4723205940437436,1.949158211015857,1000.9012932991452
956798.4,1.8925042333508637,1.6389711379734027,1000.1574710313816
956804.2,1.0285721798725596,1.5039040892280577,1000.2109151939502
956685.56,1.3834376769969472,1.825324727213012,1000.1960641402601
956605.06,1.0239867013047825,1.6930332391730838,1000.281379689033
956442.75,1.2316802781165375,1.4458433034793767,1000.5748963845949
956265.75,1.083648368652242,1.0417735163953001,1000.033619295118
955996.75,1.4370528702987664,1.7093960182910086,1000.2103342458388
955874.6,1.3263198315581262,1.2412890991929189,1000.8036489498353
955928.1,1.515845807940305,1.4488549801115078,1000.4000896800685
955998.0,1.903647464424131,1.0834715848787853,1000.0949859757224
955996.5,1.5034718595811385,1.2018844495593806,1000.7025837280013
956066.25,1.097508796532542,1.7731537980134708,1000.2136099659865
956144.2,1.9271642670906488,1.735039831845873,1000.7109856051038
956204.56,1.588995198409208,1.9284165792188,1000.2255976620431
956380.4,1.5484284128967682,1.950095078327409,1000.9335576128008
956583.1,1.369326785286056,1.9581599213824954,1000.8127693873789
956767.7,1.16027382262732,1.1802246692363005,1000.8664717970893
956876.9,1.1560895966325746,1.9811313934560588,1000.337916331181
957079.94,1.6284024564528647,1.424061503579545,1000.4796783613306
957280.25,1.7085954960059384,1.0053189018300788,1000.3439421838799
957430.06,1.6757066993046719,1.7410503928926038,1000.9838154989961
957592.44,1.2612002481199465,1.68549544129025,1000.6871739161892
957741.8,1.5874662406889555,1.337610250909826,1000.6656127582158
957780.2,1.5492584534084366,1.6567873957368089,1000.7979434212964
957813.25,1.4512245133077597,1.7335608977611583,1000.9556184137524
957924.7,1.586556960091431,1.415896922176544,1000.4814363734808
958154.2,1.29668962195619,1.0966258345864945,1000.6553442881174
958329.56,1.8480422203144953,1.8784503892259945,1000.2537331836664
958486.44,1.6406156885642247,1.847365805640787,1000.5778370974122
958642.4,1.4258460923933973,1.6061207712511978,1000.8013853894962
958840.56,1.2216782907530894,1.9256338747870712,1000.4178398871113
959004.94,1.3997149987649409,1.095142736767139,1000.6577593004356
959158.7,1.3321316214965078,1.9291583493828317,1000.4983419609657
959362.44,1.5147943208121237,1.4906088858376925,1000.5770687847388
959567.5,1.4120352678801358,1.2425826204609902,1000.7831684671859
959747.4,1.200373826511441,1.0579383362871524,1000.6771529404615
959916.75,1.177259554445771,1.307465967588169,1000.5939178742864
960053.0,1.8138640058679054,1.0622867884520288,1000.716289428647
960102.94,1.7804149059818108,1.9360519075348535,1000.5524203349245
960225.7,1.4108908670432563,1.201524500188207,1000.0716273598642
960285.5,1.3499079408416061,1.3621961972543444,1000.0318233521125
960306.94,1.6823472628847496,1.708838913008834,1000.4964739686084
960312.1,1.031126355447459,1.945049868593058,1000.5108055736755
960425.06,1.8110656575315016,1.4549770761957155,1000.4937168890494
960569.9,1.5200830772492004,1.3114307837893948,1000.8636166489424
960673.1,1.6171142660763795,1.963062865505067,1000.5940182172424
960768.75,1.3255863748440582,1.7931250702401211,1000.728320934281
960972.4,1.5274777702239941,1.7347803812728522,1000.624408411175
961089.3,1.7823591518194513,1.3838740134771135,1000.8674710681884
961234.2,1.1212113128566745,1.8400007736800008,1000.8556479925547
961417.56,1.8886952836889703,1.7249329081249372,1000.256254654921
961642.0,1.1903052204099527,1.8605840764308794,1000.5590217607737
961834.2,1.663671420705331,1.30679068779982,1000.4317156101744
962025.75,1.837530956580639,1.5503517115024636,1000.8082052745435
962223.1,1.5574522845491066,1.148689445841688,1000.5507756048448
962431.1,1.2839611808817986,1.2086993054330355,1000.2129441039799
962454.06,1.8354409901974522,1.4572792541311435,1000.6655694269572
962568.3,1.9888985387099678,1.5680748608985784,1000.6207491302249
962636.75,1.6800688516389972,1.9493527051220325,1000.1948843715828
962742.8,1.3168119102185554,1.9294361897794805,1000.4286591207077
962782.9,1.7841895391119942,1.4719159983060968,1000.8392597048726
962816.8,1.3573850322445085,1.671855282494219,1000.8038795548229
962813.44,1.5319184022365437,1.082543294616607,1000.4167401141668
962776.0,1.4227446441869054,1.9523655744459218,1000.7302977990215
962700.75,1.2335920634210953,1.9711216223279142,1000.3815069970055
962724.25,1.2260561044419154,1.7245970880390993,1000.8327437875116
962687.25,1.5323141706044154,1.737699052616712,1000.2446957618688
962658.75,1.7190875668633823,1.4472973016790949,1000.7633399362682
962600.25,1.7434229302376762,1.5427061323417641,1000.346674066049
962569.1,1.704100979563001,1.5281838522932847,1000.823714644311
962609.56,1.9299607068414013,1.9362920655161404,1000.0465296564969
962605.4,1.865568109471238,1.0775855101528862,1000.0587434974954
962556.3,1.6469599989579886,1.2679995321642648,1000.4010518090004
962528.1,1.550385132560255,1.169679421884265,1000.161425512336
962530.06,1.5429809141411566,1.5341952215395231,1000.041239419583
962344.3,1.7548346456033201,1.2193422810797103,1000.8572929505391
962169.1,1.4851746761605735,1.3365393439313866,1000.2783983613741
962050.06,1.1597278541301623,1.887815113049554,1000.8295440989107
961902.6,1.3858570701911557,1.4728291531740476,1000.4208710854303
961706.25,1.0195569660823898,1.9808251605319493,1000.7404467677861
961667.75,1.2185548980350167,1.3034131871943542,1000.163418686723
961923.1,1.2511949469038173,1.1401616385628421,1000.3159824766526
961982.1,1.6356608544188864,1.8032813710839068,1000.6235165266679
961761.5,1.9403378150071944,1.3154701327034402,1000.3834277652899
961595.44,1.0376139634135257,1.5448835764980262,1000.2796691569482
961486.6,1.5652160885402862,1.75627188288324,1000.4691340321746
961237.9,1.6259016056833926,1.0817205798473213,1000.3117166603033
961120.0,1.3243594548048998,1.398419815130254,1000.5703701144904
961179.44,1.7726373855207556,1.7912082375670288,1000.6678441711861
961094.94,1.7549466911691416,1.7499009430633354,1000.902865099482
961159.44,1.395565333664897,1.8051197506559233,1000.9491231180976
961221.1,1.0015192546632883,1.989587423836075,1000.5165237677274
961287.25,1.9675034281463772,1.4900414962096749,1000.2056096103573
961333.94,1.3462611533919784,1.7500611686862073,1000.7837148816969
961424.8,1.3760938812029726,1.2904563174488097,1000.4798052178139
961566.25,1.5559414175268582,1.9118680131491528,1000.2944545287313
961594.9,1.0699204685519885,1.3479200828228108,1000.8543950346807
961673.9,1.0627707562909023,1.860301218546534,1000.6752602682137
961796.3,1.730703496483188,1.4011833766425505,1000.6139785917004
961977.9,1.3613331480210777,1.3983088341791767,1000.9386336827995
962177.06,1.957808633878594,1.9086628232972167,1000.1576756636991
962313.8,1.2062488796616084,1.5629721550874027,1000.636237774595
962510.4,1.0387575723958515,1.7379449490629932,1000.0662824343237
962635.94,1.0328564198635193,1.45087773430968,1000.5832766944773
962876.94,1.630554366034201,1.078179082220016,1000.8304266065113
963085.56,1.5120836351832951,1.5691118230535426,1000.0459856832744
963301.4,1.56536967601181,1.4438888750316012,1000.0600396925628
963544.7,1.673115517650731,1.0547075061252253,1000.9574129402689
963706.5,1.362222945215417,1.2400633941707944,1000.8416931527679
963923.25,1.908462689027827,1.9266799214919574,1000.1566702092067
964138.94,1.9696992048239146,1.3159267231040213,1000.6839001848169
964258.25,1.3331221782008855,1.004676203774523,1000.7068211012573
964393.94,1.1891109726901714,1.892602934091875,1000.1604901093684
964592.2,1.0428388569317288,1.3565275761804878,1000.9315823586849
964710.7,1.909201759712158,1.9950825349529122,1000.0509994171836
964888.25,1.3400812493102672,1.7213350859336938,1000.8306375540499
965000.9,1.012782002271807,1.6853097985451226,1000.0739786993838
965143.44,1.6350707352232798,1.6790061144919897,1000.0200135101933
965260.06,1.5156092937478407,1.896310353368217,1000.2042641398057
965383.2,1.7720671478188783,1.2876415143520608,1000.5135312609019
965560.1,1.5247625996930603,1.3129102714810779,1000.7352653961136
965705.2,1.8990830986565932,1.7099785144884367,1000.8830531084179
965789.75,1.2481310823682268,1.0696542942778473,1000.6822836619983
965888.56,1.2995274557047722,1.0403538040595275,1000.516117044269
966045.75,1.7132829363481918,1.5446590817916448,1000.2786290807629
966204.2,1.98686657835181,1.9835254472266675,1000.2103507655928
966235.0,1.1398149229911518,1.083935486664509,1000.4214866577943
966236.2,1.9811184717732626,1.5965159265718725,1000.2165011614379
966245.75,1.1992027914921557,1.8991336314681369,1000.891115975269
966271.3,1.7343277356441846,1.1416741999011495,1000.8328821803932
966260.4,1.3787359865790898,1.9205480675336974,1000.2874268902094
966194.94,1.631311125355706,1.1744301821088197,1000.8623309688097
966152.3,1.0707331969036327,1.4560351838725163,1000.20026205365
966090.2,1.4037127111939878,1.203984504848604,1000.7653919735942
965972.3,1.0118831130585453,1.2758812375931585,1000.2743509891228
965896.3,1.8838126516953995,1.9281664638150648,1000.4208271594412
965860.5,1.2150612396669864,1.9241990473646342,1000.479001569111
965853.6,1.7273620101214215,1.228582347252798,1000.0616566872894
965699.3,1.5926435237363625,1.1093285944990057,1000.1321189313974
965629.6,1.6036559581389978,1.0488539320560228,1000.3475151937034
965576.56,1.6180158123677875,1.5002975846787843,1000.5386461883757
965437.5,1.3888231646136675,1.8291493202016957,1000.6600921780085
965323.0,1.0447393696651748,1.6176939462513091,1000.2072258840338
965253.25,1.8229177003622654,1.4923128952399407,1000.2906364132888
965169.75,1.0723489625430762,1.3524964496868437,1000.4453989843813
965094.94,1.9502023101312644,1.2969762529323372,1000.8076820828696
964999.2,1.9134725650884796,1.7335334700739746,1000.2255525818445
964858.94,1.0456028698463329,1.4305377071052798,1000.7192350128606
964737.94,1.697729124530441,1.2207520835428243,1000.2574809972903
964742.3,1.2598339922956505,1.5014753095221387,1000.8266967534572
964571.94,1.0887901060226248,1.0678028353642257,1000.4555148362842
964543.75,1.2946905843343597,1.0264171368785175,1000.426153623945
964587.0,1.5696343829213388,1.312553767443298,1000.4967866380034
964561.4,1.9914863127853657,1.4743702987386746,1000.5344049432073
964542.7,1.563504740517088,1.2104187390993881,1000.5931358536916
964547.2,1.9861595159258632,1.4153301970454715,1000.6151170689607
964643.0,1.9997760834089213,1.1248104391436649,1000.0848495167537
964756.3,1.6523610956283203,1.5117096305919966,1000.6239384326665
964864.7,1.3640254952525699,1.9394502241253395,1000.8611765481704
965063.0,1.3546588303326788,1.6859179350249027,1000.3415571787266
965224.94,1.176288786917382,1.863619725126068,1000.8567593266039
965315.94,1.223704433726676,1.7475644575862415,1000.7016198763175
965437.5,1.9931446828176416,1.6271910257159554,1000.324389005783
965579.3,1.3177237254259944,1.5662663483534227,1000.735775567557
965690.8,1.5042801383808935,1.8298954910278953,1000.5845065571024
965843.94,1.8659602471103947,1.194055138131989,1000.6123153096022
966023.44,1.2273403568957382,1.3819462712396466,1000.5469505007594
966216.5,1.0382258057211236,1.6040691187119895,1000.9634587777679
966450.75,1.4870720963573194,1.854689916786777,1000.5218498543043
966641.94,1.6626752702714265,1.9179132848438063,1000.3673957773055
966839.8,1.3880152344129169,1.8306505908134003,1000.6091782945464
967080.94,1.6392557418813343,1.318910001225079,1000.1970217223486
967238.9,1.2729505198597728,1.795154927906129,1000.3432908938263
967396.9,1.3041840720640678,1.9154197425941686,1000.5019086444789
967621.8,1.528014244280652,1.0881213966736554,1000.0450045967034
967823.94,1.9801372798339032,1.3556065331013292,1000.8090084857062
967987.56,1.0465396989544047,1.849456508972874,1000.7284858363264
968164.6,1.494082826103016,1.315613918441101,1000.2613508821432
968320.4,1.480308782724276,1.3355153537943418,1000.998459954296
968466.2,1.5258391722473466,1.2526592339870075,1000.818780319801
968527.3,1.6514372804321753,1.9306496667706423,1000.2775985252331
968647.9,1.4586381009438072,1.221412015786321,1000.791667075447
968776.94,1.8708433311504966,1.069608062197958,1000.1521436610047
968904.8,1.143925346590132,1.6979916150436631,1000.197050701715
969033.06,1.4077927061511477,1.9529563837676465,1000.1981613529334
969077.1,1.2518868835700667,1.4570019600049422,1000.9397482472648
969047.06,1.4407917878699998,1.8026298043837514,1000.5869886295634
969062.25,1.2012246240153948,1.272257735366725,1000.713714759099
969039.5,1.9250686533298844,1.070490401682672,1000.1137470527076
968945.1,1.2093584440000043,1.5410109107458463,1000.5281026997359
968906.1,1.4405815275797114,1.8742313679872458,1000.0958484360324
968780.5,1.9726307228111266,1.180709243532657,1000.4754224193116
968655.9,1.6764009837757885,1.0770366870156887,1000.5902417008604
968486.9,1.027385336765561,1.7541809271907605,1000.7565666510236
968329.5,1.6310188011961473,1.3571445133192013,1000.8743374845915
968297.7,1.2154538374609745,1.878969025237175,1000.4358880316632
968192.7,1.7577143002570093,1.934970215578205,1000.9399211030974
968046.0,1.8044102324018203,1.5587843993343848,1000.2240792553608
967956.75,1.0581176608035008,1.555988493319732,1000.7861075235425
967886.94,1.3122626933375763,1.1389444551201082,1000.9893328818861
967758.9,1.0610934767904492,1.8792387949974776,1000.2546996141043
967614.3,1.1421677361667502,1.363076859477149,1000.6500671386889
967559.4,1.8375365272189097,1.5712459021689098,1000.4803559777557
967464.6,1.5141732512479948,1.7053315832061287,1000.3700752385195
967391.3,1.3976110992406403,1.777888080092176,1000.9869580219703
967244.7,1.5591818380000397,1.5692062201801673,1000.9197314933153
967142.9,1.1486564643324735,1.9595624669359495,1000.9203009458095
967128.7,1.4856944982199973,1.806544903637311,1000.5439032111683
966983.5,1.6314654251501222,1.9371363102294392,1000.6332466273898
966943.3,1.984417708214421,1.2158957254691334,1000.540668792076
966977.9,1.3640936424498835,1.1174782027281835,1000.7094829251423
966926.0,1.2418727857762537,1.9988846662399227,1000.5977464640076
966890.06,1.7389247513524726,1.8743115491575835,1000.8755394547878
966845.5,1.774895904868743,1.2478026439304446,1000.6505941742114
966913.2,1.7729251945746,1.5525651702339647,1000.2766750987845
966927.44,1.1426530253047948,1.763675877105304,1000.3671476131204
966929.0,1.352858995963426,1.4105850766277817,1000.765980815733
967076.9,1.3641747983241586,1.8573664895612616,1000.6392333050524
967182.2,1.7966466170993887,1.158916162249392,1000.3135202989597
967266.3,1.4914234847315146,1.6112454239460137,1000.2024855850759
967371.2,1.6657133226238465,1.9491888513445104,1000.2072656049835
967551.75,1.0772332082931015,1.7524596341577747,1000.5009915812279
967660.06,1.0534954925965305,1.9092461161523973,1000.6247064888205
967768.25,1.1167771205403771,1.0127411561072566,1000.8549590175896
967885.5,1.318999067662975,1.3611270299153038,1000.4990943464993
968065.75,1.2586333025083674,1.063617120601189,1000.2008490575512
968220.7,1.6471548915905714,1.191563764266557,1000.8411293496631
968296.6,1.3996190051991806,1.7057454681270974,1000.2498687906393
968427.9,1.79556089134672,1.2351596498558726,1000.0330754570842
968503.94,1.5183416074572795,1.0265250773560144,1000.4798951693598
968516.1,1.492331229538852,1.637729037352225,1000.9975454639172
968518.44,1.0068135914098915,1.7744301158283464,1000.2941726209517
968652.9,1.3421506877196103,1.0040227093492833,1000.9895222415734
968773.94,1.4804392253414669,1.9555433564366953,1000.9434718925828
968841.5,1.6201227955043516,1.0353907445597068,1000.4294428190635
968992.8,1.3259582127995706,1.8235408442474372,1000.1881766362982
969155.7,1.7987263818735617,1.3385613132880751,1000.831707917579
969292.25,1.3322791210744378,1.6123070239836708,1000.7679482330378
969401.4,1.8983019058111763,1.0784881020308683,1000.8464365035248
969567.9,1.2777694667529034,1.6769324923188311,1000.5543971472046
969727.9,1.8956996163516506,1.0323341962733168,1000.8569978406733
969950.44,1.1962729433125707,1.0549115150132757,1000.8846107791528
970135.6,1.6827353818837611,1.5722124206827566,1000.8838835012956
970335.25,1.2758089221533648,1.237006339583528,1000.402590122971
970667.9,1.804923246342569,1.094830739264447,1000.0741876994149
970842.6,1.722065331059313,1.0631305068574803,1000.3453354842114
970951.75,1.2881493105302282,1.2041303614240588,1000.0498910138137
971095.6,1.595305792596273,1.3043868605313604,1000.4770458183704
971127.0,1.2978833637949703,1.056927974801702,1000.0193424153462
970998.3,1.10214757069412,1.228844261558916,1000.5369840105047
970932.6,1.7272616157273322,1.1704937753624605,1000.5741916116683
971079.6,1.8317854344705218,1.712394097891301,1000.1202774765176
971136.56,1.0522067095346437,1.2445276502303488,1000.6397035630991
971010.2,1.5292162605101691,1.828199403170732,1000.3083596555
970835.44,1.7594290552335712,1.8129813111625683,1000.5611207722218
970749.7,1.2364376733093283,1.1119558368349047,1000.5380005429748
970632.6,1.2167144658602096,1.6921869450457254,1000.2327028982239
970489.8,1.3129836876962042,1.5586517516441287,1000.7259014843476
970399.5,1.4369163569344132,1.3236212486124344,1000.9679920276615
970350.0,1.4380019604331713,1.8851561514537436,1000.6958031798483
970315.25,1.1273106651644371,1.2934129489641428,1000.1340814052128
970270.5,1.9137817028421553,1.1603982001042152,1000.5314066240041
970238.4,1.9018295759492037,1.8800550833043497,1000.9040483325117
970160.7,1.6455346938507676,1.340076457950941,1000.5675863332284
970133.8,1.3285249222020654,1.7743006221477229,1000.6286487681186
969968.1,1.1934866206987809,1.1227955082809784,1000.295994070441
969829.44,1.079202883368314,1.7879074160823585,1000.6539878131152
969694.94,1.1810731506256882,1.8618546465277679,1000.6138630370698
969460.06,1.2255858830616122,1.5004646367451162,1000.8709405050186
969188.56,1.5245953216600645,1.1635128022121672,1000.6823931519345
968991.06,1.7141621111071013,1.4597510443208432,1000.4451082925727
968826.7,1.379806376700941,1.1273597683892165,1000.2599618533601
968693.44,1.696238805734492,1.6780569787939736,1000.2986503280471
968515.4,1.4497165432275374,1.8395279335864072,1000.5873604995005
968491.3,1.7306505730321502,1.9519706639057426,1000.7837725072533
968476.7,1.6787024606746097,1.8696508120896347,1000.4650669992974
968397.75,1.3613444471210328,1.7113413898136765,1000.5681393843997
968371.44,1.8123658182985052,1.9730248887610666,1000.1237349329112
968450.1,1.6569982355027018,1.077861900270618,1000.925143707147
968582.94,1.6439550503794496,1.3317025566582044,1000.3369104790077
968661.5,1.7332056790545387,1.3800156100783114,1000.506341534631
968770.2,1.6362439104918036,1.9756868583771112,1000.3665351192602
968847.75,1.4059305129004274,1.8399085557265433,1000.8480171266169
968914.8,1.7737695094844699,1.9955609907785603,1000.2182136684866
968877.75,1.1630986683801443,1.7817877314310744,1000.0492761302265
968925.0,1.2758459535966784,1.5755388568113138,1000.3308260300189
968983.9,1.2999432078603812,1.7448378947323346,1000.5483666061235
968996.1,1.7030475457962178,1.0768299676940283,1000.9803644870774
968953.7,1.2710727577810297,1.9077783643687007,1000.7753527294282
969000.0,1.3257607773923672,1.0409388164570736,1000.047732460866
969075.25,1.727533242267083,1.1706285272996517,1000.1730622295289
969071.0,1.7836438886305297,1.1763446482362065,1000.6864181424658
969090.2,1.8985477543870104,1.2193663571788758,1000.6708929089092
969111.56,1.9159743171894537,1.911277879588466,1000.1468923328904
969128.4,1.195729930100638,1.1703942061676624,1000.0524365292176
969153.8,1.9378420309579982,1.6404308028711667,1000.6119019617306
969245.9,1.434609049438667,1.751259059849514,1000.8380682135644
969409.75,1.1335476416457704,1.6792328580048403,1000.6961320117039
969564.4,1.860886848183791,1.015308961651378,1000.6750040400601
969727.4,1.9427544810759279,1.6895470982303311,1000.8658910736289
969814.75,1.6527129138776666,1.6939344298155343,1000.3344715375589
969895.0,1.9818204720870654,1.8615731021766162,1000.6183892976719
969907.1,1.3931440871011525,1.2011813307628265,1000.8446510336421
969860.6,1.3235328801817783,1.6379146188781808,1000.7335804958219
969852.5,1.7173971816167648,1.3179141460445443,1000.9932398820561
969807.7,1.383407241608619,1.1232269765892813,1000.6386871762836
969739.7,1.7476634373484141,1.8268677510640416,1000.0527394584559
969558.06,1.1846466858765066,1.5230869417747863,1000.7144918441779
969537.75,1.0337013015012528,1.8304995258521188,1000.1878071698002
969586.06,1.6592914166006325,1.9977586794082463,1000.7695279806775
969589.75,1.8893285277374123,1.0638293436300892,1000.5483643939274
969581.56,1.044373896638359,1.5467834865296992,1000.6172718153696
969669.2,1.4862644590677108,1.8557803932426116,1000.912204241429
969656.2,1.9128107292006864,1.1041695212139218,1000.860466999217
969698.56,1.915928972415921,1.1703840462513895,1000.660011814774
969690.4,1.3177728659693844,1.8576946558803757,1000.0919737082412
969695.25,1.6379090792657385,1.020900776142342,1000.1616205523902
969699.9,1.7382237797012197,1.8877545182830322,1000.6118162336185
969668.6,1.3599946996121144,1.5082304983285963,1000.8662682501231
969649.06,1.7237831352831516,1.6067510709554003,1000.7770050794243
969629.9,1.5802314469816348,1.7706102446145637,1000.7455261568384
969632.2,1.616151957858941,1.1877320091544084,1000.9211939349865
969596.56,1.2242965844192817,1.896462715156117,1000.7157141037312
969409.75,1.8761249124649537,1.2209485616305003,1000.5131418267296
969228.9,1.4967212546580737,1.0223503715045903,1000.438562394683
969007.6,1.7471111309313134,1.1500438155433297,1000.4060840483437
968726.75,1.0979860563241037,1.7958643682339788,1000.5605464930616
968464.3,1.8503308267869296,1.9947404662478379,1000.4794437135865
968330.06,1.2859572219374966,1.2694881035144205,1000.8410323165855
968192.06,1.6168967411743607,1.0983093877004286,1000.9031423620602
968022.75,1.5440622294133388,1.2153992647092675,1000.4248394785956
967861.3,1.823565776874471,1.801638771771021,1000.6160445175028
967709.1,1.9637886679586316,1.0078145538106273,1000.337577178917
967534.6,1.7990778166059826,1.5701113819387367,1000.4516409883938
967387.75,1.4776569297669937,1.358921569289785,1000.5234244432387
967236.25,1.375388775301042,1.1622542419786148,1000.5578710886181
967153.75,1.4412564822748717,1.1233961489339235,1000.1816032521141
967090.9,1.8533860123301225,1.7673933133947768,1000.8790586428676
966954.6,1.622628711635104,1.1328418116096028,1000.2497411693181
966848.1,1.310105294506143,1.924181385585825,1000.9312705717922
966872.75,1.0064817311651029,1.082885889096074,1000.2433952927804
966808.4,1.6413292679712144,1.9918028398710552,1000.0590416775232
966727.56,1.6269699442029808,1.9984215210677285,1000.8772394831454
966726.8,1.8088957428152508,1.2793431457657816,1000.3826733063042
966544.6,1.6766417642906633,1.7417799807127372,1000.7668485588507
966275.3,1.9553497883820188,1.3937577465433202,1000.0978579342689
966050.3,1.1191724632069946,1.1658235139508566,1000.2457950964907
966011.44,1.9810446143564548,1.4591552211435466,1000.2590837592235
966010.44,1.2179519653572974,1.6630031073971194,1000.8438381767738
965974.75,1.7904708614426572,1.2769783287226777,1000.2693991705095
966046.44,1.2330890879693006,1.3061035118080666,1000.919312835703
966125.5,1.6290609581427087,1.8499722345333665,1000.6080275778565
966130.3,1.1262550489458687,1.762388273266568,1000.138496660827
966183.25,1.225051541797888,1.353062538543587,1000.1040561044024
966285.75,1.5338379047781978,1.3812885977423623,1000.646257153197
966436.4,1.8934470861197807,1.500615829046212,1000.408910942419
966601.75,1.4411953789358423,1.3435581414483957,1000.7549769926716
966717.9,1.7412675708084095,1.073764313767561,1000.5423358663384
966896.06,1.020663419635727,1.8806538451119237,1000.5072849481318
967017.5,1.8557713383660934,1.8282496546692348,1000.9238739917146
967045.4,1.297441597722418,1.2650653940264793,1000.8395941322244
967101.7,1.6712054070044304,1.331854816341814,1000.8837176620533
967022.8,1.7899014386997723,1.6307028692862655,1000.0545677098479
966881.4,1.6877535447747394,1.0220162472624152,1000.716666635204
966817.2,1.0175469292809571,1.4033063614845422,1000.0469941392478
966817.3,1.0330046981059557,1.46952275800885,1000.1669629144623
966820.56,1.9720094423919934,1.093220114350462,1000.0239863325498
966870.6,1.720501863618071,1.358386827841986,1000.5529771948031
966932.0,1.043124807572469,1.5463196789114775,1000.128400240428
966968.7,1.461058471073866,1.424116459935599,1000.0822105016352
967066.94,1.661860374122179,1.6860628672262874,1000.55295057781
967057.25,1.742911347156259,1.352392077166105,1000.080562358043
967157.2,1.9511658055415357,1.9822954947281577,1000.1303255683958
967271.0,1.79712032554857,1.5902874887009526,1000.6574733475584
967358.44,1.3397607640622045,1.9723648730681949,1000.3899681665716
967405.1,1.296856717650742,1.1580341736125048,1000.7012039332556
967545.75,1.9085278499075238,1.7688966795182965,1000.9781278885005
967691.9,1.2447645632219728,1.8590270550995625,1000.3764301491015
967683.9,1.1737194283448096,1.9174325155150511,1000.120525712609
967640.2,1.0010891856127788,1.9674632515424129,1000.1770729857577
967600.0,1.8864322118069192,1.9210092062587192,1000.6554388430809
967403.56,1.7545512736444202,1.6948671704572416,1000.0154475038622
967142.75,1.241526215670282,1.8078215848977097,1000.2972696606452
966953.56,1.1004438714516804,1.250202498709653,1000.9126216133633
966872.6,1.0896808949724188,1.6520272423759736,1000.7564775698893
966845.5,1.4981649162533612,1.2108733280424915,1000.2495856476783
966830.06,1.680190519684901,1.969231516604037,1000.0575415846911
966810.8,1.7265560732200291,1.9470744441709877,1000.2227847608331
966784.06,1.8525791514604095,1.71567600717016,1000.4105887880175
966632.4,1.9596708855476535,1.2315146146093907,1000.7309338603308
966520.25,1.541870330872748,1.476288468942014,1000.5059644884108
966511.06,1.4996108702831652,1.1738736330524806,1000.6822256085159
966423.75,1.29619411537923,1.6990759459752733,1000.0030812389314
966411.25,1.1114863116705944,1.2806708180603028,1000.119071751663
966393.6,1.0721020362899556,1.6567719334927529,1000.5006343903171
966393.75,1.9164876396617032,1.159403130351386,1000.4098651799952
966373.2,1.2036802136224667,1.5521686957315777,1000.6263215491181
966250.1,1.9615433268887008,1.2956813492970598,1000.2597915119211
966076.3,1.7409539715329458,1.4618466528594352,1000.6144713707042
965813.2,1.6778680769160146,1.529317316929642,1000.2269467462943
965420.75,1.1041898535264303,1.650566233401974,1000.3348307519419
965034.5,1.4217232249888432,1.2389316118851572,1000.9482063150423
964760.94,1.141145076598384,1.0146814309925956,1000.6204222963343
964616.25,1.0486444735016234,1.662643134101296,1000.802564822916
964474.4,1.7381869870882563,1.405176266890749,1000.2887527069498
964313.9,1.1677026477888472,1.4760431989719929,1000.0553545676454
964212.6,1.9226458973785043,1.4770630627666157,1000.9553977455586
964047.75,1.132765844271423,1.126457282295461,1000.2873077467336
963873.25,1.9738027097904793,1.2919848637139992,1000.431757394032
963744.25,1.4322143248748826,1.8031829596520874,1000.5047562531225
963706.7,1.1986675031459693,1.5029658119979072,1000.1933180663353
963648.0,1.6795843091632494,1.4251709001748458,1000.2544261002914
963620.1,1.7420102803063113,1.3274422428296824,1000.0688705557967
963597.6,1.5547127196289399,1.8352755502872853,1000.9528783182398
963705.2,1.886580408007816,1.5335627571284491,1000.8229971117534
963607.75,1.0303256142812138,1.6439194286342533,1000.795082588035
963447.25,1.33074964478394,1.8253901214887418,1000.6763089128026
963249.5,1.8800111723863733,1.7760009101300378,1000.6101816144343
962936.5,1.0738862383829106,1.7768613159899287,1000.6942803771077
962562.9,1.8551993463076948,1.4191785591640502,1000.3211176311122
962290.94,1.9927655534968554,1.296231873264781,1000.3579339799168
962183.8,1.4172011706609764,1.4438963164150893,1000.4283259140715
962098.8,1.327831568334231,1.8337708319465214,1000.079722085171
961986.6,1.4280496556929758,1.661231637984932,1000.8095467949446
962023.56,1.3997830844790973,1.884675254917238,1000.4300385299119
961956.8,1.7568888957516569,1.209066769796593,1000.9986462229313
961840.75,1.9131595836817565,1.856226459223367,1000.4825579247218
961832.7,1.4880830297842054,1.997049547501239,1000.061379824086
961899.6,1.8415778028442298,1.8498568579677555,1000.116665891109
961945.1,1.4046594092341735,1.7552984242151122,1000.0898027779367
962014.44,1.0946188111907138,1.045910552573794,1000.4718974075557
962076.9,1.1944606425336766,1.1512732342094978,1000.9786376402822
962180.4,1.9151641257153509,1.6758093240472633,1000.1040407591179
962045.06,1.7302899790985977,1.2873396497559022,1000.9064216505554
961981.5,1.8586856334518274,1.6705547479366119,1000.9244428279159
961769.3,1.301890404153645,1.7008338222939494,1000.7543406860424
961311.8,1.2494978021525793,1.4556413379565705,1000.8903131738848
961002.9,1.222383603095335,1.5969432209412024,1000.1096124948634
960850.6,1.330273060023875,1.0964277289737838,1000.8890862683553
960914.6,1.3282699719476256,1.342112027753398,1000.1488175640778
960902.5,1.8285884248613669,1.7184976579038014,1000.716634519597
960923.44,1.340692916847046,1.5179665086012701,1000.7676636139374
960953.4,1.7892291078464697,1.1743524561398133,1000.3088466370855
960947.44,1.5070645119236774,1.97796573804013,1000.0722182904079
960968.94,1.5299741650216605,1.4040553992705807,1000.4875792887427
960963.9,1.1582014109673842,1.467296177493706,1000.9606575509615
961124.3,1.683165464917352,1.5508610144144996,1000.3938808776522
961215.56,1.896865642416118,1.5938567305078046,1000.7656431475273
961333.4,1.321522814187515,1.5587038762379972,1000.7783115685568
961345.0,1.1556871208552926,1.2379134633309903,1000.977505592422
961181.2,1.7290653102504612,1.1290389810673898,1000.0364928299115
961045.06,1.4565341307174315,1.2477375436476004,1000.0738474391786
960756.56,1.1103920036542885,1.8383744549306937,1000.665283443853
960291.5,1.0032925251087168,1.5653218680136591,1000.1565152246143
959828.56,1.506621265110784,1.1262165504852408,1000.6004827938522
959626.56,1.5331556109578395,1.7477452087745386,1000.4177521039487
959509.25,1.5042950680365583,1.6038768059879676,1000.4503324303032
959359.5,1.4098299659467182,1.339308964798975,1000.7457568965444
959269.7,1.9149282939763934,1.4066486248170824,1000.4643828103675
959289.56,1.4703718429029107,1.7906971805119203,1000.8768383633007
959275.3,1.4666653288641749,1.8517594212188802,1000.6263378937394
959227.9,1.6327896634795698,1.6725391281409692,1000.7281381634762
959235.44,1.9400091077628896,1.420813661021842,1000.5566754770466
959382.7,1.353146421390905,1.4688558014625115,1000.6309334849927
959456.0,1.7686737536628692,1.5622089043868739,1000.6185654302863
959540.8,1.7300990337751685,1.775829780504991,1000.8649547839648
959573.1,1.4064665798536935,1.077565317055531,1000.7352027541747
959460.0,1.7740770684875597,1.317878649827063,1000.9038052123295
959267.3,1.541132483567307,1.4908284345078595,1000.6286248163939
959059.6,1.0335569082731553,1.5176202982273579,1000.1816346552326
958798.0,1.8615982540984017,1.596735803731431,1000.8463377227432
958605.94,1.2527914749630396,1.5494013310320542,1000.5574497752137
958730.44,1.1072981208280965,1.1950668873719292,1000.153790766962
958896.2,1.1324155466794037,1.5230954381883417,1000.4254296533428
958967.75,1.1223117700665903,1.38536318834546,1000.0699009802588
958905.0,1.6485442851426155,1.1185403930648086,1000.6101149773868
958895.6,1.291383772062071,1.1340378865129828,1000.9798141018439
958913.44,1.3705012871162463,1.1151518361850878,1000.0742114405003
959030.9,1.4209011250863248,1.1922750255471435,1000.4981470367308
959232.6,1.2584944605049846,1.5466964528399383,1000.1138578961742
959494.7,1.437006137106812,1.680669155976935,1000.0865284040261
959732.44,1.4004513663702833,1.621110899301763,1000.7452793266182
959933.5,1.5762578628962003,1.3701324686209708,1000.7100845159002
959857.25,1.737520601916149,1.2700800828623795,1000.1777955037396
959696.44,1.8511417145302467,1.3777361595837108,1000.6719206578994
959339.06,1.1522764421289078,1.4118517589668191,1000.583162899481
958901.44,1.1121874301763488,1.2602592463695863,1000.4757959468267
958558.7,1.3935548057047344,1.262796862435779,1000.1986858823169
958527.5,1.1873009796515974,1.6146292808125802,1000.8961144130261
958587.25,1.7973084180037404,1.226408131255151,1000.0094042160515
958639.8,1.2065529129574135,1.748936941376505,1000.1524396988256
958701.1,1.6291377923489248,1.659438937110333,1000.9140740985792
958852.25,1.4705499814221272,1.9647804039648236,1000.3694415074556
959049.25,1.6963213906053192,1.3215094437991548,1000.8335155038877
959161.3,1.7043778796965587,1.8266010556200176,1000.1520592891231
959208.7,1.9996641152939245,1.9101064245948773,1000.837321640657
959349.5,1.4780467622078541,1.9116828670763497,1000.5519067531204
959658.56,1.5851243147789833,1.270768647022976,1000.6498388312368
960119.4,1.4931408081506332,1.0750290210682825,1000.7903897152248
960204.5,1.9696924570166503,1.7266233195865894,1000.7469611405503
959980.44,1.3529650555914,1.6212543079873738,1000.3353477430693
959640.2,1.9351982460691022,1.103902754666692,1000.2686993057791
959240.4,1.1191923962012391,1.2118827674911363,1000.2614760695508
958888.1,1.2592506857340564,1.298784748167354,1000.5835926348825
958651.0,1.2967977767332315,1.9773522142734758,1000.6530027049748
958510.4,1.0955849175405554,1.667858877826565,1000.4989261707894
958412.6,1.7650825868928015,1.0326819867040178,1000.2476153056241
958225.7,1.0334516441512651,1.9214206621369252,1000.7545226868302
958114.06,1.90011902287886,1.9068248158655843,1000.9262943931242
958102.9,1.8850235717350312,1.2640412764965299,1000.0376688784511
958028.94,1.2627434416758327,1.6665589649851444,1000.1245976972033
957970.8,1.0464545775230358,1.707111405030962,1000.182191176737
957989.75,1.4721146986482492,1.7621307318321533,1000.6145236194525
957969.9,1.2468304523648017,1.1234557628679958,1000.4661547668826
957963.9,1.1592104273482495,1.6847362746413377,1000.252407555565
957998.4,1.0318553549605864,1.8766269791532508,1000.4228832949608
957899.3,1.2824895055082282,1.3238354137924122,1000.163854962802
957657.3,1.264790284250168,1.2540025978825429,1000.524008565202
957502.25,1.4151579725602055,1.8995911735369613,1000.6057613512702
957386.1,1.9853235483926452,1.4563569986737384,1000.9318129038401
957227.6,1.701043015830869,1.6642232412930316,1000.7703779361561
957178.3,1.0695509526665616,1.9692002027608058,1000.4513717335267
957167.56,1.1185890086463717,1.712065703226195,1000.5431994690802
957192.94,1.5377858027612796,1.4424153082991427,1000.496765770131
957206.4,1.299391736985013,1.0191791187147932,1000.0055203281279
957299.94,1.9935712146329896,1.7530971147545211,1000.7561565654835
957488.7,1.7648011887937944,1.3586455657671381,1000.62100154412
957657.7,1.6507848453794725,1.7845681004413647,1000.7590798030349
957849.0,1.7806821575291143,1.8998940881929465,1000.6435349546075
958052.1,1.5137665100590794,1.2248482636992326,1000.4502210839856
958207.56,1.2335252262187295,1.19529396525117,1000.3773418575068
958347.3,1.2712034482800858,1.1106921302078272,1000.0040029167384
958796.3,1.6140496429001214,1.074616589802663,1000.3301299498829
959064.0,1.4493894853933247,1.9016069005420395,1000.8146339269238
959076.6,1.1925081618490039,1.442560763145226,1000.4877946367978
958982.56,1.2458623666943638,1.2352279721385944,1000.648698195523
958864.25,1.6443703292347827,1.0238516682986885,1000.23898868391
958727.9,1.8850311281868328,1.989635950276794,1000.0171950092468
958715.2,1.9849564211327464,1.1305077822580127,1000.5425480338045
958814.06,1.0833233455386386,1.2260391333889291,1000.5828808322594
958878.0,1.3876094534021488,1.0817661919354622,1000.9781773334837
959016.2,1.289177701810558,1.6702055980247024,1000.0493100312748
959195.9,1.8870690002224526,1.4778908213570014,1000.4352964987941
959462.5,1.16428225216639,1.542078364244218,1000.7780643474542
959669.56,1.8869880651723112,1.6176866492669038,1000.1387881672237
959847.6,1.567535328506136,1.1928097773372786,1000.875207628077
960057.3,1.3161468138207382,1.9380003856641306,1000.2705036853271
960257.44,1.1155350141831588,1.945692959356585,1000.8093398079562
960478.2,1.600946114806773,1.699888987943579,1000.3773416340599
960786.1,1.5281054946155255,1.7596835329456961,1000.8607974645147
960966.94,1.5193626278648957,1.3156852102192038,1000.4625653766161
961160.25,1.9880600733982239,1.0295699351298704,1000.8840386263444
961478.25,1.2865231586635333,1.6737527968182921,1000.2117312344843
961619.9,1.249028994892609,1.2143333901920195,1000.3520532042588
961593.0,1.6859171977032186,1.3932008162590508,1000.4161046770691
961546.25,1.2844106613680693,1.2040766723171823,1000.5086469290351
961589.5,1.9004279220901834,1.8543417194183833,1000.5535288310408
961703.1,1.233500143234099,1.8564934493517278,1000.6758628498284
961809.44,1.3852063608458824,1.1568822205172986,1000.5330338854028
961983.4,1.9231703255919714,1.6095141582843868,1000.144162621846
962270.56,1.5213474938560057,1.5929385360995427,1000.3355250699111
962484.8,1.3940243133475247,1.5502278434139036,1000.5304810133194
962641.1,1.7363425284437726,1.5913118879243129,1000.2402563708133
962819.9,1.371017285135876,1.0914427275654655,1000.0312987963349
963200.5,1.8539328428718256,1.1515040684064455,1000.3787649666826
963625.1,1.557076318653825,1.3567231885631355,1000.7515419641925
963952.6,1.8753461770397726,1.1953172839767825,1000.5176662522658
964173.56,1.8986319431997725,1.2125542600914154,1000.7804234512288
964202.0,1.7513315916458012,1.25596766308198,1000.5642098515978
964132.25,1.4218132974756577,1.2246732968072378,1000.5746335343654
964119.6,1.7333533482693015,1.1648914142236526,1000.2802912477151
964144.0,1.6969119620778494,1.8743433320262026,1000.889572829334
964146.7,1.549236440515139,1.9883115233587747,1000.870900589206
964165.75,1.9794516484451692,1.8951848956958226,1000.188470288437
964282.06,1.9485015723948065,1.1200018117442312,1000.0948374105126
964333.6,1.2384163052268233,1.3347065125298858,1000.0394805432726
964269.94,1.9142787741845333,1.6305011773136742,1000.8446862529387
964192.2,1.4917057038133272,1.5812794653595525,1000.336445022788
964227.44,1.5330463269741168,1.9187009731510978,1000.1840682740645
964178.94,1.67767859835501,1.114693258601858,1000.358033255985
964201.8,1.4352839726121633,1.3715991938688616,1000.5059198377141
964237.4,1.7255633593528992,1.4981951870444483,1000.0244055039441
964276.44,1.235492215271199,1.2435090194082172,1000.4665364510616
964304.9,1.0403211110263988,1.3216171918497843,1000.1793489664999
964351.6,1.6947173423815456,1.1707455309034627,1000.447848307777
964363.9,1.3741707151421663,1.1965078491504246,1000.2243131034538
964345.0,1.8607628330639658,1.075524565798043,1000.3566307399262
964194.3,1.17779167802617,1.929023919143666,1000.1371423464827
964132.8,1.157590402901787,1.3087147516669946,1000.7987466963576
964101.2,1.4491220886286689,1.3806223949828333,1000.1791984189538
963998.5,1.0871590878341921,1.626907384551309,1000.872228752714
963924.6,1.2435502678653685,1.5607965422544958,1000.4620534393127
963900.3,1.2243530753280212,1.3724267453594652,1000.3753730156594
963844.4,1.7581597040041883,1.0243710484437196,1000.8597271025205
963761.2,1.6404059530512658,1.2101146471294655,1000.4858763585994
963762.44,1.599894226536322,1.7463389597153047,1000.5252753274312
963728.94,1.7668285572174725,1.335042088513228,1000.3555409538969
963653.94,1.7058867661196173,1.406208531195904,1000.3975692754726
963605.9,1.2419026351616413,1.1783949845069284,1000.2366669569399
963636.9,1.3963707952386986,1.6548265066215135,1000.1241327052597
963686.4,1.7039022149766438,1.896688332567259,1000.3533214997193
963781.25,1.9833169109849405,1.6651331458993741,1000.5786683836301
963905.56,1.7758028921288764,1.0011360008767485,1000.3853116922555
963914.8,1.9062093573602206,1.2243698056667953,1000.5714397099159
963840.1,1.227053297629055,1.9299704808165266,1000.3043125186083
963952.25,1.9746434064552085,1.1843580620544514,1000.4710888858766
964026.56,1.5378501260914512,1.4037789927875557,1000.4142860900704
964035.0,1.2608654635622774,1.1606611531982216,1000.518135143357
964113.3,1.2805170212279982,1.8940524160123569,1000.2253176412335
964256.2,1.653141814991101,1.5145369706802496,1000.4016523712402
964390.56,1.990612085020544,1.0209228847686176,1000.8728610316383
964481.44,1.6228009160090207,1.667982270517483,1000.8661277869113
964617.6,1.6009281489432252,1.4146215458584372,1000.0442530660775
964829.3,1.9176273911187052,1.1727837310643434,1000.5088103421682
964955.44,1.7379484428038414,1.7550556846860057,1000.475946300793
965057.1,1.2320676696736732,1.593077740693844,1000.9586356195789
965222.7,1.4759652913942587,1.0753525217376438,1000.4692327855926
965434.9,1.9979683999214861,1.4470166374606888,1000.934499175328
965634.6,1.7802948765259141,1.381406647783846,1000.136251571059
966097.4,1.870558983838257,1.8083821184577842,1000.918326678981
966422.6,1.7857234617561049,1.5078748118120564,1000.6804247539518
966555.7,1.1478960485992995,1.2847525545938412,1000.7433419752085
966618.5,1.6992703239815086,1.6119499000873518,1000.3268997930381
966636.8,1.2932800415055357,1.4591544153401377,1000.5763976443905
966638.4,1.0344611405292987,1.2205443745427138,1000.6880758882761
966720.25,1.6350741033423821,1.4560884788508082,1000.3968980330943
966857.75,1.2330281950767625,1.9175834973629216,1000.1465871218264
966901.06,1.1735973941559772,1.1657223926967357,1000.1046442683805
966982.4,1.1102342107113872,1.168986488984173,1000.3962168896334
967079.25,1.1323822107202486,1.1835911985629655,1000.2051125210163
967225.5,1.3775418657041287,1.4346487783457724,1000.6533389650704
967318.3,1.7885243730524376,1.117681203759031,1000.5130949740137
967416.94,1.4845123838848293,1.238771528548484,1000.8220840037353
967548.94,1.5530494628919067,1.8175439464782177,1000.4513975446545
967697.7,1.1293568639919456,1.0769143425118637,1000.365269661199
967903.0,1.054936072177672,1.667961536091452,1000.9986495586693
968069.56,1.175745656158425,1.7304341273277932,1000.2627278435326
968109.44,1.003095083059108,1.0759008248902213,1000.4521208079415
968171.4,1.8796096798089428,1.8276612808548751,1000.1685744964669
968239.44,1.235854508158066,1.0698863773565366,1000.4830314575865
968304.3,1.774328717308739,1.4840504239563472,1000.4937310302579
968317.56,1.4089390847714807,1.6389245208151977,1000.4446817321979
968396.7,1.0987713647517072,1.9594275834541628,1000.688171468564
968491.94,1.0790413360512816,1.475908844451441,1000.0186753756492
968555.5,1.5110221210729402,1.2169114946635329,1000.4981035956946
968646.5,1.3052350369216974,1.9893886297583843,1000.6431682630445
968763.44,1.3090302131195959,1.4943079859608135,1000.27602064341
968841.56,1.7530826012277887,1.7573338470718975,1000.7366082117958
968821.44,1.415375021956494,1.4941967542612984,1000.574438868232
968768.06,1.7570727719811123,1.1945875433251536,1000.7880991498631
968749.9,1.736912672757701,1.0543464734094412,1000.2187570204378
968763.25,1.726253669967888,1.2534265139306218,1000.160278361495
968798.1,1.4913431630161083,1.532374159079622,1000.0942357282358
968772.1,1.148840462178399,1.133784966823797,1000.8580783047555
968582.9,1.2654766851537538,1.6937290489368002,1000.5612088913449
968452.56,1.4019734632159282,1.1046576846452718,1000.514574970249
968384.7,1.4728060032089383,1.750026504579516,1000.3411365681992
968273.3,1.6935722417814036,1.6489484722289227,1000.8303114333368
968164.6,1.415147830554761,1.9320629380447927,1000.1454422661898
968158.0,1.1343535712127393,1.342753413977373,1000.0012392060894
968091.56,1.9600749009023353,1.608098809187839,1000.1071025998793
967966.25,1.7331891481212451,1.7869827517668622,1000.9963652213953
967861.7,1.2376934408052778,1.7866983923817363,1000.0296354018398
967808.75,1.1410098318866397,1.7942861281152183,1000.9841518942684
967707.1,1.6268445240976226,1.2311322371359323,1000.864233213539
967604.25,1.520766247336928,1.3818172321198765,1000.1816310955311
967503.6,1.1180593884422096,1.5224732742974707,1000.6597351574968
967476.5,1.5918852718267686,1.7113241355368967,1000.8902515417055
967441.0,1.0320087302875658,1.6988967749247381,1000.6742425260647
967389.1,1.715856844917791,1.3988060710630559,1000.4134873620657
967152.94,1.9656327372505036,1.0173754228054948,1000.7622768063411
967031.9,1.603140988424915,1.624798299571725,1000.4445182793414
967031.56,1.5946901020077902,1.077475652880402,1000.8080651757218
967018.06,1.206407549024953,1.180422603676201,1000.7543972456596
967002.6,1.997092479502217,1.7088438301910913,1000.7348985584251
967051.75,1.8420321337306338,1.4572310346678443,1000.1573471247282
967083.56,1.1400157238158086,1.4790596712984931,1000.8767077416838
967363.8,1.36589397598004,1.6287259276906363,1000.7646048763183
967691.8,1.8586499715605487,1.6382831538918636,1000.2532708884142
967840.5,1.7376492235511272,1.3346086762333398,1000.4294405557996
967832.44,1.9790528638703018,1.5669805504910617,1000.7808803202473
967827.4,1.8873984358307614,1.692228041008644,1000.094567239103
967896.0,1.2845692254321337,1.18419578898907,1000.3969152698002
967993.8,1.3106524590085589,1.2593827509213162,1000.5618715852901
968117.8,1.8832449695038642,1.1111398027807722,1000.5342614762823
968140.06,1.984081851438659,1.7900575594173578,1000.8639340777834
968119.4,1.7763806066931451,1.9708195830134567,1000.6384829815709
968200.6,1.397256772875011,1.0321941207237608,1000.2039246798757
968299.9,1.8819775316374765,1.1092851115630689,1000.2521169477106
968438.56,1.6874195886509455,1.8618284856952552,1000.5312199849767
968593.5,1.4250788246023216,1.5474956451047563,1000.8494368633321
968776.7,1.230697229434848,1.1374669175859133,1000.7830763595191
968888.56,1.285698498078943,1.0475023843426832,1000.1574177993406
968952.0,1.9898690315747884,1.8155149807072815,1000.7042691598299
969117.06,1.8334981789989604,1.7548288926587912,1000.196542019346
969265.44,1.4626423945558282,1.0893403437530054,1000.7769282021533
969476.6,1.2450660821899688,1.5606636103096223,1000.1001435643337
969653.06,1.8208620521349328,1.1995904774770092,1000.6811612264717
969811.06,1.4406242676028351,1.8697360855846314,1000.7906383194222
970061.7,1.394902468598128,1.9712327681738915,1000.1050850857386
970251.9,1.3457635670947323,1.7478410811535405,1000.3114525293079
970318.75,1.9542097098243052,1.1888740957345914,1000.4405094946846
970351.75,1.9799888734384257,1.9377685839947398,1000.3142319658316
970455.7,1.7507304454804329,1.0352675124668118,1000.1188140155632
970571.1,1.3892880566261616,1.2744837500415982,1000.9235841895664
970717.0,1.2667402675886508,1.1222221928478684,1000.887504121178
970773.2,1.602574351233802,1.6668979130721016,1000.1356917393431
970924.6,1.4522726098594132,1.509827927421379,1000.8111384731396
971112.25,1.5858300590798775,1.6700263649016436,1000.4452867821459
971182.5,1.7731860657765788,1.0599416036910678,1000.763613423928
971325.2,1.6500348009296464,1.8693261183451235,1000.7951961350789
971473.3,1.9868136761465789,1.7443072475976558,1000.1519296446645
971538.5,1.8097917098042284,1.6362115117460023,1000.631018463817
971498.75,1.6626914764051524,1.8361810976799653,1000.2677488044172
971526.5,1.0137538038963951,1.3099872434638091,1000.0253218544709
971576.3,1.9215992511196394,1.942688509281866,1000.6223433144601
971570.56,1.4247909256500444,1.5856273593765506,1000.9897994702555
971566.06,1.6879006095035614,1.2438556969757615,1000.406113347798
971492.56,1.6864347530077093,1.780901677094744,1000.2402809601214
971453.2,1.7155885224957625,1.3107374292997584,1000.6585421903499
971425.6,1.8696254357590707,1.492423782693483,1000.6170664248185
971439.25,1.6070093669736698,1.210393935014393,1000.2665330150119
971406.5,1.1824153884069617,1.334613384906313,1000.5384055998948
971420.25,1.4943184768566176,1.734033171044503,1000.985774988936
971466.25,1.7654912921685615,1.9904537683193773,1000.7642711628164
971382.7,1.4802160549784769,1.9052703243835531,1000.3790222451976
971344.2,1.3776291441742219,1.8717689740400987,1000.2042182412808
971361.9,1.1235683068259592,1.603392674015247,1000.8641852558754
971309.8,1.2851138984776442,1.063709948070823,1000.1893294106188
971265.56,1.125108344297862,1.8311090928252327,1000.8430494167023
971277.4,1.0989325919623822,1.552775168042769,1000.0146623316762
971262.6,1.2677162783648028,1.052525656739168,1000.7801325281241
971197.6,1.9847494955667826,1.7147700036630291,1000.7466928267203
971225.56,1.5884910977692819,1.9067231785058087,1000.1396062399903
971101.44,1.16579563424719,1.625320043330134,1000.0523154205088
970995.1,1.1016831398608256,1.8156867829231917,1000.3606632999647
971052.56,1.2288162154159412,1.5884438887257746,1000.7671130763836
971096.56,1.4996974828652982,1.4062773449678208,1000.5877052098202
971139.9,1.3533711114028981,1.930535971097811,1000.8182752738035
971221.44,1.808412192767833,1.2618271433146462,1000.3910496237667
971296.1,1.1336736663205607,1.2798699546999637,1000.3165364982851
971349.4,1.6930858542311422,1.1916243361052183,1000.4190436778391
971410.7,1.4042296248727042,1.7588424477467965,1000.185093445238
971570.4,1.2284214546977026,1.4662815446478252,1000.8181394275001
971660.6,1.5211316698836626,1.130273061228384,1000.9298163868244
971759.1,1.4640353084942348,1.881096746517203,1000.955713537126
971901.0,1.3680584129451359,1.0905323713447874,1000.2994450395204
972065.56,1.0547409147081144,1.585108256288374,1000.326921743686
972205.9,1.742274003924578,1.89584638213794,1000.5731915976537
972377.44,1.205353892623175,1.270720648062691,1000.2626988066314
972549.8,1.067398021411998,1.8419603210878437,1000.4708572086113
972616.94,1.04175065917341,1.5312478094590203,1000.3700407538278
972795.1,1.3047080433007605,1.9145660986309,1000.9466543492956
973002.7,1.775513834828724,1.7269178242389485,1000.1566074727003
973157.25,1.2316416218835897,1.897256037424226,1000.0786710828022
973279.0,1.3876463612247731,1.4848933549948478,1000.2324477346458
973473.0,1.7842945671618542,1.5731638354250863,1000.9324640864836
973620.75,1.7486717334492243,1.7366790078717709,1000.000182559137
973789.6,1.9878797610372796,1.1605225006481135,1000.9945664812597
973973.75,1.4081626476624942,1.9712380948796446,1000.9741310217742
974129.7,1.2157435520415285,1.927979205032256,1000.6250388336454
974281.6,1.1576416612048739,1.3051853637916007,1000.5682660760675
974384.6,1.6281028715110928,1.333138022529718,1000.2300891136465
974511.9,1.781775766980553,1.9938946847239822,1000.321635536602
974663.8,1.2962962663906552,1.4130155585458544,1000.003268904298
974789.4,1.5898416812811373,1.4636176315917,1000.1016090845393
974935.7,1.5398052911265059,1.7121328957633914,1000.9484136265747
975092.8,1.2781148616606728,1.1569707810120198,1000.0553937445795
975140.2,1.3806783798476614,1.5746503900098705,1000.6864885960447
975226.8,1.5984074052696458,1.7831884033422454,1000.6733669374954
975416.44,1.4938016734234825,1.5320430412773436,1000.2224138893631
975587.06,1.4238873661623845,1.5546036576941038,1000.5700356665874
975682.75,1.6790546053448832,1.9477588866684834,1000.9654422898082
975797.4,1.5223454008390616,1.9147040413901615,1000.0121214082487
975931.44,1.6195884834197836,1.8231793019757354,1000.7948613785725
976022.94,1.1549401978677358,1.9456879145983859,1000.8620013227153
976055.25,1.447508383282937,1.6958613940078116,1000.1026193643663
976196.56,1.5645736768518987,1.09140989933056,1000.3244006754909
976258.44,1.650528780934069,1.9529253371710402,1000.9608219948186
976358.6,1.1443810753841246,1.627029127331788,1000.3035700527388
976408.06,1.4767818836011202,1.6984636469045462,1000.7369033860507
976481.56,1.6125738425499891,1.296790615009567,1000.4720473452761
976558.9,1.5083241257359277,1.789185901877277,1000.477771873638
976504.8,1.275599943530701,1.8579345100953422,1000.8990658569475
976547.44,1.7676352898221728,1.8862095262951075,1000.3969649545785
976539.3,1.9882752313686969,1.650676621326621,1000.1834056161642
976462.6,1.4182316958549617,1.564848395994935,1000.1981303162494
976403.2,1.93071936667994,1.098064991224172,1000.5171089106663
976364.25,1.810234838517773,1.630082704452581,1000.1653081484953
976354.5,1.914776288625573,1.6300982772135155,1000.4260150157975
976263.8,1.3280703505510556,1.1988651863450905,1000.9623827055724
976196.1,1.274723236522304,1.0494989826365506,1000.6370943393941
976134.25,1.6496670126233592,1.3814480532699176,1000.9772031848331
976051.0,1.8755555078660144,1.357722687886282,1000.0812398475276
975958.06,1.6982628246327156,1.1541194176417129,1000.7215652146974
975896.2,1.0119248968164363,1.9686641027371214,1000.0817961542788
975826.9,1.7290228533667298,1.773657581187241,1000.1286157403871
975709.2,1.9866731329564322,1.1519800183322122,1000.4552698733602
975615.25,1.1433697266146958,1.2096461169786132,1000.8244555747367
975500.25,1.2693774970816194,1.9312626199974567,1000.1200529704562
975386.6,1.5193088379907054,1.4699349942878297,1000.4932685698717
975270.44,1.4002678394955508,1.8317184109162188,1000.5008751926764
975128.75,1.4134352507115104,1.855034111196093,1000.0784303666861
975044.1,1.4490398582322943,1.3254177468750226,1000.8137116507287
974848.56,1.8888847239058864,1.0814181824095859,1000.8411951472254
974735.75,1.6903235302805113,1.2569144866857584,1000.5474130347683
974764.56,1.7145526045344812,1.364366955293469,1000.4126200226793
974714.75,1.6066288797471096,1.0425023085225469,1000.8192633107827
974636.25,1.6628513454505072,1.9922807301346592,1000.7202450008107
974732.56,1.098715409384011,1.0252968117509382,1000.0083749851437
974991.44,1.1307429233773565,1.1994269791843184,1000.5231602334162
975095.5,1.5941101805370084,1.7597867982071684,1000.2208363742542
975045.1,1.2305352996229415,1.326792189332998,1000.6097311005522
975029.8,1.8361161449974266,1.3853022297613888,1000.5961313970743
974959.75,1.4602794875636687,1.5261018436081246,1000.082248234595
974868.6,1.2453277296790737,1.7522821406083495,1000.7920101986673
974883.6,1.238894388039765,1.223295119385177,1000.0905781128228
974917.06,1.2366101495639752,1.820345106056212,1000.1131269922703
974962.25,1.9946090407801544,1.7443549913049727,1000.4679357111825
975039.6,1.7869071516520005,1.3439445853724301,1000.6571193358528
975159.1,1.035989909767357,1.6245788605045743,1000.999265139109
975202.5,1.941660948010822,1.1481629821772148,1000.4880351429505
975271.06,1.4163954550759237,1.9841564138896772,1000.0074758613474
975354.25,1.4648995453347784,1.1412264306660018,1000.9691700885572
975391.7,1.774660367515688,1.4759057228289958,1000.9028331556617
975419.56,1.7543206042285635,1.8092703894133413,1000.3622226805224
975566.56,1.5736206736335958,1.6019277220138606,1000.818464367981
975657.75,1.1356877117188429,1.2482479074087323,1000.989428044182
975749.44,1.946743647102664,1.9640301438833976,1000.9661551365668
975885.06,1.290848211495363,1.0829553183138456,1000.9182279068112
976006.1,1.0656984698000658,1.1623910112266207,1000.2878080226221
976131.94,1.6785179572230007,1.9549135156539705,1000.5508161681639
976194.3,1.1928805530747666,1.956916923844988,1000.9694924045298
976314.25,1.4992342309932107,1.370128329033732,1000.1190207038364
976404.3,1.0165692707957144,1.247618992416274,1000.0053439400843
976492.5,1.2744565942213377,1.4389219225378211,1000.6728745276987
976633.7,1.9948270067773786,1.2704035419683994,1000.6272300606083
976732.9,1.2760443372498613,1.6999353513538633,1000.5514018140025
976768.44,1.7316207799143188,1.8142007786336456,1000.2141707848058
976810.1,1.0892044764254494,1.107085565222416,1000.3000042591966
976856.2,1.039671983606591,1.3687209137123155,1000.7198749314432
976841.1,1.0641955590350038,1.5564744529153365,1000.9383436880647
976790.8,1.7076186852903725,1.869414380502676,1000.4965944083901
976829.8,1.8020432094156575,1.7173368313308677,1000.7599863211692
976902.75,1.443904891033102,1.1489450173859954,1000.8494495299666
976945.3,1.6174448772389258,1.2899005955311904,1000.8815179095808
976980.75,1.6377729960797862,1.115324851303361,1000.0854924756113
977083.75,1.2215224738662624,1.8368784655622719,1000.5284959590649
977150.9,1.4839109436449907,1.218862484087333,1000.7633877477698
977187.4,1.106926549295661,1.8709826425449694,1000.7809084304378
977314.9,1.687674466814669,1.9223978630256833,1000.3364850404835
977359.5,1.365645582791311,1.910880183395144,1000.9099627300623
977417.6,1.5456397926832235,1.2682517462251495,1000.1925949429275
977488.8,1.2024320669145439,1.5949504318458674,1000.4280749498636
977588.75,1.4114640138480117,1.8357879579912562,1000.6486974440519
977649.2,1.005126241752789,1.3092512743986255,1000.1484900241145
977621.6,1.2877393946257247,1.2242394754995916,1000.9160083628917
977740.6,1.9475215607513707,1.143667267982229,1000.8652921485407
977851.9,1.6404371279424514,1.9468217700367512,1000.1719259871893
977996.3,1.5921128750238134,1.7675230610720525,1000.9693424591247
978042.3,1.2247799722719468,1.3742380644744154,1000.5252612964648
978037.1,1.380576661430087,1.1674644427045715,1000.1874495879181
977973.75,1.664401318512183,1.5407120573538866,1000.1204038472946
977852.5,1.8228120158002783,1.2090839247623597,1000.3771605337271
977697.4,1.7174898609951266,1.8932172002691692,1000.1746147653495
977600.1,1.5131161456082278,1.0961925065706604,1000.5217257244534
977524.06,1.2606724931664877,1.3440199156161032,1000.0874701970123
977569.25,1.8620565543815797,1.8415924110966773,1000.5604297373009
977734.25,1.959716488171512,1.217277853103758,1000.2233249493748
977686.3,1.0664301668573402,1.8044425073264434,1000.6723646961556
977536.2,1.2102138920870005,1.2085701316649247,1000.8856884333668
977362.5,1.7461140831136648,1.832121583470276,1000.687443107113
977207.06,1.5823921451131542,1.1865151263291662,1000.5640636921466
977010.56,1.2791944065212224,1.7857473735397265,1000.7690173882983
976736.44,1.117574903663772,1.6860965297771102,1000.9652322937086
976578.5,1.8079931406141947,1.4689932542690767,1000.8747026313396
976400.9,1.43504435630713,1.6638713575536586,1000.5899903186988
976189.4,1.1851509929071664,1.4067375931978545,1000.5628884644291
975992.0,1.1435139073877592,1.295035006299012,1000.8610402285072
975863.25,1.236624219614495,1.5611850805141825,1000.0496397101258
975674.4,1.9931972298645533,1.6226426607215738,1000.054156942127
975519.75,1.3610140910062474,1.2311424936140591,1000.7438348390695
975379.75,1.3911860565311587,1.0443523678846913,1000.3337624428523
975239.56,1.2284084644717064,1.3326212861361246,1000.9292675983389
975057.2,1.0394975997240998,1.3262325169637106,1000.2108382391889
974959.5,1.6367896038482743,1.8460912153446216,1000.7442015098518
974872.5,1.9172321853080359,1.0651539531710927,1000.801452189829
974848.6,1.1151985933055886,1.3376132248117387,1000.0512434976691
974875.94,1.9658655538924894,1.5069949717384314,1000.0944213382055
974879.8,1.7868537067160393,1.1305178692635596,1000.4854410701386
974900.6,1.3997261537579775,1.229681150517428,1000.3967740828673
974821.56,1.3915634751836516,1.7146238714278472,1000.8379868086055
974824.9,1.332957067466746,1.411235407622942,1000.1183633083369
974749.75,1.6049231055432105,1.7789832470351505,1000.3110038104173
974590.4,1.3616644593942426,1.0017710245954867,1000.580520952065
974540.3,1.9608310627052754,1.0750059657088995,1000.5838281745371
974571.06,1.4131822678828374,1.668170085422343,1000.6290742441386
974616.9,1.4319719178263788,1.3703312278699444,1000.8769371135426
974698.1,1.0690678409070415,1.4168398688337716,1000.8098024906875
974744.8,1.5105835275655126,1.3809167415118997,1000.330511516805
974764.4,1.3011580130193408,1.3284152427536815,1000.2085533472871
974853.6,1.0169228221032673,1.6084123748650239,1000.1591935809698
974913.7,1.8852800018251845,1.467570198612201,1000.066648429051
975072.8,1.241785921393329,1.861493887407801,1000.4344539234943
975164.25,1.6955424558298435,1.8683154878034545,1000.2048316946532
975337.2,1.504992650576819,1.3290845994462586,1000.0762923495953
975479.0,1.4133934838790945,1.2596485766591905,1000.2188029928042
975560.4,1.2014121723616549,1.8781769124356418,1000.3848443341868
975614.8,1.91352018479308,1.755077021092052,1000.7690616283573
975680.3,1.6083200899760466,1.2887715734860539,1000.1819742707787
975687.9,1.581553275341066,1.4279682324765508,1000.5458871331728
975667.8,1.14101632202451,1.0829714308045273,1000.596632553241
975738.7,1.1458974058260298,1.9419310460400618,1000.3734255149402
975802.1,1.6864144210167353,1.3952606788250193,1000.7619996796033
975848.25,1.1912870598401741,1.2981236748271203,1000.5593743700939
976135.1,1.7848526431377907,1.8431639526924855,1000.5046919761273
976451.25,1.5884345085395646,1.7133927709573764,1000.5075658858722
976524.8,1.044356357559392,1.2015685190184806,1000.4040739784647
976542.4,1.7304516273556234,1.0514629644608537,1000.8702854661467
976482.75,1.455940003237106,1.8742145048278718,1000.6339812691897
976533.7,1.296133758273378,1.1950710043202109,1000.144041733249
976555.6,1.2498665660259323,1.4503945053982714,1000.0500677426288
976631.8,1.1699356603908926,1.601325882569014,1000.2442211511911
976584.6,1.5492120741779383,1.1369414430499685,1000.7972979275066
976516.7,1.2866879212523035,1.0248310614576959,1000.9977149947317
976509.5,1.88664826341455,1.8259398151277098,1000.3300024382414
976453.94,1.7256635456586373,1.6037120287580853,1000.8121330850163
976357.06,1.6308125947438612,1.863488895457782,1000.0213664670961
976314.3,1.4027889120722437,1.6875846011485764,1000.1651904060956
976370.6,1.869440204959209,1.3857564857233213,1000.9027702284628
976334.3,1.2108994810916762,1.3801399951549689,1000.1196329630386
976393.4,1.4420879983195747,1.43225480569934,1000.4737822587001
976475.1,1.8331547647879627,1.7249184140718081,1000.5280464066009
976530.8,1.6420313240254052,1.416848320994283,1000.159947504131
976599.1,1.8485855178384583,1.557111460366138,1000.2232522441808
976658.06,1.2330508502551667,1.2039967005931587,1000.7428103871724
976763.2,1.7045544825972005,1.539545739954082,1000.1660938827087
976897.4,1.1679511275007086,1.0148620191790885,1000.1102025877111
977002.94,1.4743312517747587,1.8051418798218166,1000.6425797819545
977067.56,1.1589368002916938,1.7815980086323973,1000.4042497794522
977021.06,1.5090558351539018,1.658370572988824,1000.7915512298316
977061.5,1.8261867045790012,1.2133095250485306,1000.8150897402502
977064.0,1.5368141046476822,1.0368742786219016,1000.3988633214665
977006.5,1.9912863076139624,1.2736014577585708,1000.3691887989506
977038.75,1.4772733516500578,1.511579374406978,1000.7767167273013
977104.5,1.4374077856272354,1.8793782436370408,1000.35401887993
977170.4,1.826530716759291,1.4682595368359945,1000.3361891059368
977251.94,1.8518812909299127,1.3086243058061258,1000.5856005813423
977277.4,1.4323861538749123,1.5220643726122192,1000.0927821489995
977285.1,1.8044841784809433,1.5221494449912465,1000.7252947025291
977246.94,1.0237603097748784,1.983267970788415,1000.911762853788
977213.0,1.9503709589926845,1.158887222607074,1000.9443975051332
977211.0,1.0629882280783112,1.2936921850965668,1000.8955830127495
977262.2,1.057156375553641,1.2583762358201978,1000.8987724912802
977253.75,1.488986549920051,1.3197871112260362,1000.8041714706565
977259.9,1.8300504876000292,1.5631303393336935,1000.4470020050427
977175.6,1.225985200471278,1.157646623337761,1000.3588746577137
977022.0,1.3072931191384551,1.0982552661267355,1000.037109054761
976904.94,1.1401689277803488,1.4197613454371707,1000.3718286772553
976758.1,1.0729067528648413,1.7384276208831064,1000.590952111894
976658.75,1.675430960647121,1.4813809266331124,1000.2914514317005
976485.4,1.5888010131039356,1.2191667741132373,1000.4118678817563
976407.5,1.7661092727321943,1.1677207236035132,1000.217140217459
976287.5,1.4992436650068548,1.218249543007365,1000.4699956409834
976146.9,1.1052311865408495,1.5913197109119375,1000.0817329477557
976069.2,1.666684955692222,1.9797065913456389,1000.3911526954671
975956.5,1.130888965824675,1.3263403604490454,1000.5985558748924
975815.56,1.4261845785292677,1.152280463685279,1000.3427860292162
975676.25,1.7826846120385698,1.6471576530085161,1000.500430593372
975614.56,1.6899658911920188,1.7195165946601385,1000.6671508929309
975523.8,1.3121705609217211,1.402500131872032,1000.9181905224378
975433.5,1.3145132183460517,1.5174784865241937,1000.8411628098908
975391.3,1.037403794194921,1.1930144568817704,1000.3384709791655
975202.4,1.4542688017110186,1.5927342359285417,1000.7948526614701
975100.75,1.5134411136314943,1.9725297141755886,1000.0921872745056
975071.6,1.6542586842633886,1.7631040686890302,1000.3303484469258
974985.4,1.8502070431428719,1.8127864700125995,1000.7433496681865
974837.94,1.69954563446584,1.2627645540627146,1000.838684313561
974739.56,1.6981188988515805,1.0096407331113686,1000.0699776017852
974544.8,1.0814302213466391,1.60542340208253,1000.7717652912871
974478.06,1.1157007892473696,1.072723832186374,1000.98428322575
974421.06,1.2131151899276005,1.3218266846333635,1000.3656305361244
974480.56,1.554918219229156,1.6130236935007984,1000.0977431943569
974517.94,1.3655606614145448,1.831082193448987,1000.4553325288006
974568.5,1.0949079865878764,1.8257512787931165,1000.2149791099358
974621.9,1.954520227832469,1.0302993675326384,1000.577627702038
974738.25,1.072309721930978,1.28020024270104,1000.0985479295274
974786.6,1.0498035051874912,1.4033574777660283,1000.3586964781786
974934.25,1.4063598961281705,1.4569723979435274,1000.1872916365314
974992.75,1.006444432137063,1.4759108264878524,1000.5434895263138
975011.06,1.3404579322227574,1.928427206958263,1000.9894013071032
975145.6,1.9796085611294698,1.6290307792248928,1000.2788878726091
975165.06,1.8579270421001155,1.5778818165542337,1000.3793309831653
975203.5,1.1252422171138186,1.8661110780968135,1000.8746863979919
975259.56,1.1602516666399012,1.0777408578994732,1000.339412720715
975404.0,1.8206930083287458,1.110132628839769,1000.1852467896877
975483.5,1.159576280912071,1.811938584478764,1000.8431826507369
975567.2,1.728533812648446,1.0076823799644261,1000.527748577379
975734.8,1.4599139667830947,1.5487906561131826,1000.6240101555595
975875.06,1.1300415826280972,1.66624609800422,1000.0073821467868
975986.56,1.8750841106148786,1.2081792889730685,1000.2210858089261
976115.94,1.1547016081831356,1.402123936679971,1000.7483539210489
976235.9,1.8268517192315938,1.9048334598772803,1000.9408126991163
976404.44,1.313002382307428,1.024394537634444,1000.5389378051239
976552.06,1.1112396825341841,1.2905247977353747,1000.7828026982132
976608.75,1.2029105781221927,1.35779797037025,1000.2770231540269
976623.25,1.4522974596097975,1.3472087722910064,1000.3824401016831
976604.7,1.8806097288567463,1.5527705466557375,1000.304189359386
976685.4,1.325967244527042,1.04838365042739,1000.7691120425105
976685.1,1.1170011350510458,1.6291220113359766,1000.1410849292763
976679.7,1.6431578246109344,1.7277369224458434,1000.3872979491539
976705.9,1.4088525587198057,1.9742218911994853,1000.312342935599
976770.8,1.9164013959001367,1.793688162037696,1000.726119464962
976754.2,1.674626335474509,1.8622705725767557,1000.5575678366836
976832.25,1.8356292840137838,1.9791502490017465,1000.0351349086241
976919.1,1.5225153355584782,1.88562419020458,1000.704259455704
976951.3,1.0395433272799552,1.752986392044821,1000.255001470405
976997.44,1.8332937812143915,1.369014287687162,1000.5437766941449
977082.6,1.1206502002405705,1.8584577341745097,1000.3516192901434
977091.3,1.8926095506022969,1.195901086897193,1000.9188376397647
977159.6,1.668590129929055,1.9681391879490273,1000.0959909189464
977241.0,1.5525075152386256,1.4770622161619842,1000.9198643975409
977249.4,1.4175555435586185,1.2606499431448772,1000.8973061725699
977270.0,1.6046955977963326,1.1736195300122814,1000.4727339362246
977252.3,1.109070355249862,1.3941845133583197,1000.6488951726262
977253.94,1.9135175837789418,1.094249352353908,1000.9411500995276
977238.06,1.7221933710700474,1.9684212465317361,1000.7070387309315
977295.7,1.8623628768942755,1.1375635732010942,1000.0047917676962
977369.25,1.781976253809538,1.6439640237558182,1000.8060156594369
977481.06,1.5271568947724456,1.5589910755320595,1000.1640593807462
977524.7,1.5001451804191546,1.9992720243079252,1000.7333804771513
977634.0,1.910828222648036,1.5087496802359204,1000.2429341132377
977692.4,1.407366611536832,1.700138537425289,1000.7694800063359
977720.8,1.7969395633986718,1.1638925236372253,1000.2225058008416
977653.44,1.2368022711872881,1.2307719960153594,1000.6031066440576
977613.06,1.8385051202793408,1.9323036793314188,1000.296712261134
977616.9,1.1883581660460674,1.0071977747719938,1000.0926485044898
977668.6,1.6644871514297948,1.4307104765223833,1000.6287817115955
977639.94,1.6096954378524981,1.0690993756362799,1000.1964107240021
977619.0,1.6804864147738217,1.3380079531855384,1000.4878849486811
977511.2,1.2828061309255325,1.8207160092792334,1000.7119636024096
977374.8,1.544985732180272,1.2924308982279968,1000.6378046895142
977243.4,1.7881932491451633,1.8011305123670875,1000.0187036302159
977164.5,1.574366877193716,1.371596138879986,1000.426888466571
977062.94,1.0550939686818794,1.378025959279113,1000.4527105697354
976920.3,1.6181878428262915,1.8866134326121355,1000.5261169415604
976794.4,1.3691351012457993,1.5880657203306054,1000.2702254717888
976652.4,1.0696896527791657,1.283852884216329,1000.7385376837526
976506.56,1.702652218453971,1.8081988729862855,1000.919895339478
976459.4,1.8507421351303306,1.8472512641215446,1000.8891744510796
976363.44,1.638231258033191,1.5089617341811712,1000.0038487815293
976282.3,1.459646336216614,1.9318392706176373,1000.4828258176645
976214.6,1.8434997011299878,1.086752877324252,1000.1184064001993
976148.5,1.8500750602763691,1.6239447384731043,1000.2066965471844
976123.06,1.9278951423688564,1.0840221903266998,1000.2211642484854
975967.5,1.2012065683382647,1.5876861511473876,1000.9714129555375
975899.94,1.9643769049711266,1.7710068109637267,1000.0197266890672
975812.5,1.684520511786837,1.537921111920397,1000.9633794420829
975616.44,1.0925098727180227,1.265882085578765,1000.1910911752886
975471.44,1.718644889136435,1.1072231680829865,1000.5591253933304
975416.6,1.547170701057964,1.0818059315213193,1000.8007248024805
975380.75,1.6088787782957379,1.3364607342790633,1000.5002994831416
975335.3,1.5727245370453844,1.505757296312221,1000.5614432264605
975453.75,1.3839895339260047,1.5057138523803348,1000.4259402680922
975490.3,1.988135825772687,1.3604849300167605,1000.9389206290413
975512.06,1.6709582738183393,1.640541310672589,1000.3464302819915
975578.06,1.6718187173928691,1.5738131207996207,1000.7634371711348
975669.56,1.564586449260935,1.9584563915550541,1000.7308392477289
975711.06,1.1743201720752854,1.1110219921469224,1000.4743435290512
975781.0,1.0159821077074604,1.154422292626296,1000.9673612910755
975911.3,1.2190902295518384,1.0356283631291034,1000.9897892579537
976087.8,1.3758445434362452,1.830612594053104,1000.0533430696029
976354.94,1.8919923641482295,1.463967840323999,1000.9484941091779
976580.6,1.4657130567209173,1.6492792621076588,1000.3018794004404
976850.2,1.4469767197252277,1.9542304528684333,1000.9095136009822
976896.56,1.7461910564495597,1.527391455768975,1000.9932324249374
976983.8,1.1957415348970701,1.0794928576450165,1000.4894886556147
977128.3,1.6662342602061555,1.4008170563062414,1000.599161268244
977211.0,1.9045504100872694,1.9115410298080548,1000.7887474201802
977299.1,1.7035020032716135,1.0825146010150521,1000.2863929379461
977421.2,1.094242658471153,1.3720929752512518,1000.4863576757259
977606.56,1.1974918823509813,1.8180962407742953,1000.071033797247
977676.75,1.1145764656276547,1.692236462895217,1000.1896889177962
977826.8,1.4256946442324216,1.3636878449194734,1000.3080150570775
977985.1,1.28396248523164,1.4706896296363008,1000.0110673251016
978130.6,1.7832198639770944,1.0312604463656077,1000.0343560880643
978236.0,1.5445811443340585,1.828773793131337,1000.1140524091568
978378.7,1.5377224327515537,1.6938901043412398,1000.8590444242449
978450.56,1.453013699485143,1.4859476635410809,1000.4270089579323
978509.56,1.3501991077412248,1.4845512026264487,1000.2674335942455
978634.6,1.7300407997719152,1.059987584179836,1000.6395707475134
978683.3,1.2353793853927892,1.0736843561757123,1000.2962976140544
978663.8,1.9232501275065244,1.8299853404242512,1000.301112764425
978700.94,1.5565264098766822,1.573559547042231,1000.1062293873855
978690.75,1.1540626589952525,1.6317355706700405,1000.4188281121932
978685.0,1.7425653934034737,1.8089323916483393,1000.264708189201
978665.75,1.8138110733653967,1.1456447923308293,1000.9935605655965
978744.0,1.8089059115990458,1.130145764359675,1000.8709919014211
978786.0,1.9901024875591433,1.5631510093496899,1000.30640893588
978714.6,1.11433375206102,1.9879708307008017,1000.5022888351373
978674.44,1.5780453854433976,1.4723673053113204,1000.7667850531211
978667.4,1.3642826556457532,1.1553563077294497,1000.0207611916044
978669.8,1.9401809874716922,1.469082982284219,1000.5816170458078
978679.75,1.2828083558266656,1.8923877453426257,1000.0560261945363
978644.0,1.4940563469409254,1.7585794603993197,1000.1505776292562
978690.4,1.6736531212284143,1.1322507356658864,1000.4353859773628
978661.8,1.8230517759749072,1.804058854285437,1000.0252361140747
978602.7,1.730393574879592,1.1510959970871344,1000.5935090933633
978599.06,1.7522791927613515,1.2874439705720138,1000.563243472984
978421.1,1.841420181650295,1.9599074162768333,1000.1675930844193
978321.2,1.3623949685480459,1.8576363407955,1000.8037287734929
978181.6,1.3506872260134684,1.2461091452668187,1000.4391781541749
978064.6,1.9486349546034964,1.9155123618756922,1000.4434495347903
977893.75,1.287683849222243,1.2355047422850922,1000.7694741329573
977800.1,1.7393803992825276,1.551438390054094,1000.5499560658744
977702.56,1.8403171009074666,1.6684447100166313,1000.4691160645125
977568.9,1.625337337239671,1.002641562435149,1000.6231511676588
977445.6,1.12491832814298,1.9312947438980872,1000.1114940286434
977339.75,1.098694966247437,1.7594398824790898,1000.9230704338767
977244.94,1.1226819206304812,1.8615272382684793,1000.3361932798059
977104.0,1.7965924957720463,1.0933759693118952,1000.7289104518669
977062.9,1.4696276285942713,1.4134211083965056,1000.5513002441179
977058.3,1.617615745154098,1.3146153253955655,1000.6477892917469
977080.94,1.4486375946188512,1.9841695539791697,1000.8490586662145
977153.25,1.9614697985388108,1.2061809360991327,1000.2823318425488
977136.6,1.0511466921408474,1.7872028840435226,1000.4844367882803
977045.0,1.7090487323271337,1.0295666996970048,1000.712170221932
977045.25,1.0785034577828825,1.9170943733011592,1000.8292138621279
977082.2,1.7473695256293706,1.386727479297711,1000.9824490959654
977034.75,1.5051742747491308,1.302037814232646,1000.6437449034365
977072.6,1.8006491802430504,1.3313812138404373,1000.807060003141
977122.2,1.0989465858686156,1.0553755051402076,1000.0299153672886
977219.2,1.7110158645958853,1.9253268950372262,1000.9371943222556
977273.7,1.1359747144575094,1.7221340766258897,1000.3716728383835
977580.4,1.6424801274167231,1.5895020575243632,1000.4334729126765
977920.2,1.8193569700491912,1.175013929050741,1000.6547073565647
978039.06,1.098076564401706,1.7650364371871894,1000.9630563276033
978023.44,1.4272640993641508,1.884862050363536,1000.727312916483
978042.0,1.3341449733518738,1.9823135081030023,1000.2172737538216
978084.2,1.5899161823761616,1.869898360590402,1000.5802920511074
978166.5,1.8423931357358372,1.8914236615475044,1000.8464732030532
978323.9,1.6761316201530454,1.8059363550988365,1000.7619052705543
978357.6,1.4964590055500366,1.5138246249739415,1000.1400088417417
978340.9,1.4896370674646908,1.7742721176477443,1000.6496376782699
978402.4,1.7926204455811336,1.866519798674705,1000.532499801063
978430.8,1.0898829746964505,1.190068244284687,1000.610420677854
978439.75,1.356388953435312,1.0320165301186814,1000.4110736055051
978482.44,1.364666068324175,1.8189082341682847,1000.8535197913518
978567.1,1.0760075763663006,1.5164960477683431,1000.3987434439846
978662.1,1.0256167883345564,1.4452783576416612,1000.2134393278668
978754.4,1.9531869213844315,1.9791603183280588,1000.8118567608198
978848.6,1.2971757577686227,1.8983032678370888,1000.6697247614521
978943.75,1.1818707688355756,1.4958352815202487,1000.7910073974082
979002.94,1.1324242227904247,1.912136604892444,1000.3478602247264
979131.06,1.1787962002278691,1.2995524369143454,1000.7398429524839
979176.5,1.9633641630408187,1.8548744953932725,1000.7292612979388
979270.5,1.5347145545153813,1.5504291586784489,1000.5385293202019
979379.1,1.6062041278394814,1.8546072351327374,1000.7464958353609
979458.1,1.7549347142890135,1.6501776828112968,1000.3402083976938
979494.2,1.024750155358161,1.7635344501367476,1000.5423138357728
979437.06,1.660959267593494,1.9192734210762872,1000.3939713672738
979459.8,1.025651523058645,1.9769746251336633,1000.2883806883304
979428.94,1.2328813896426727,1.873469383167261,1000.0301068024986
979426.94,1.229265586682184,1.866034608619397,1000.789486938006
979437.56,1.469156948450966,1.45509915348118,1000.2197703241883
979482.75,1.1350562193684797,1.4423665842957085,1000.765353530841
979535.9,1.3802694979439665,1.4399227143526532,1000.7275733810917
979513.44,1.2575569549823342,1.622999566759464,1000.125948575749
979478.9,1.324908002766518,1.2145357082535029,1000.3045892777626
979483.6,1.4963718922724436,1.9362245176955422,1000.1503039543738
979425.4,1.648990801331864,1.0237639564391405,1000.4239717234333
979400.8,1.113858260680932,1.2763103375886642,1000.3589173891794
979343.7,1.8254231795230447,1.152375106177132,1000.0848120617981
979332.56,1.767204323344009,1.053437287805162,1000.9570295860547
979308.9,1.4390690719526646,1.29150223859435,1000.7249424892107
979258.9,1.4038641359136996,1.7082541787408985,1000.0272504486705
979214.5,1.1977654010820797,1.026056776421802,1000.5148687148142
979073.5,1.877735917952854,1.554098506883956,1000.4144296773843
978887.94,1.379825925797584,1.1241501787120103,1000.2597169282694
978728.2,1.271304113957162,1.842319984466764,1000.4095836054314
978552.1,1.3273377163996343,1.4522067460153172,1000.8673657764806
978432.3,1.0790694351080397,1.8237581909576475,1000.2305565253135
978235.4,1.784407930272141,1.2576204701209441,1000.9302767388723
978134.9,1.7259579149123914,1.62987997651053,1000.2978662406647
977954.44,1.8170544884239717,1.6634480444097473,1000.3133465778802
977758.56,1.7031214988948977,1.785836087739927,1000.0085189807494
977661.8,1.6196744510912997,1.140919686119315,1000.224213822112
977574.9,1.8722521604053575,1.3331437403090918,1000.2823786846495
977440.3,1.7488459712595423,1.157345559256409,1000.8728620131346
977343.75,1.3112650682025127,1.1187020462260164,1000.5804763960897
977246.1,1.4200460919444007,1.5716110380663053,1000.0987685211632
977181.25,1.0540991845460592,1.5740119061374411,1000.0287290306828
977105.0,1.216488520563264,1.451217689709969,1000.9733016573205
977099.5,1.9545317681243277,1.1100236069832707,1000.8265389187437
976957.4,1.2555093548749943,1.1937322525687226,1000.0568797343894
976896.75,1.4674753808926626,1.7742934281506106,1000.4678318935569
976868.6,1.6768802942531398,1.9628560605429795,1000.9323979069264
976852.1,1.7271590483445296,1.178817742657286,1000.82424247792
976733.9,1.550358710020666,1.5506103491210275,1000.9257040671497
976727.7,1.5277952752656945,1.7415196562987387,1000.049759771035
976690.25,1.6122391490386372,1.8922073669195074,1000.3378429147353
976685.06,1.9167201822169053,1.3472711235524903,1000.4279484316844
976708.06,1.968627918319953,1.1085900325583489,1000.5937817111131
976789.0,1.8506776468268105,1.6423392910478425,1000.4017454829066
976832.94,1.6004735795993834,1.7161739612417117,1000.138804398683
976894.3,1.7343427448791822,1.9523550288671303,1000.6482612165972
976996.7,1.4098358846861276,1.9280877043004625,1000.1173862023373
977084.6,1.7927589238992951,1.924252917865791,1000.9558496726154
977191.06,1.921663336295727,1.7119711380336988,1000.9394026841209
977266.8,1.4628233101336408,1.333731854029799,1000.6217100736634
977347.6,1.9898915849000287,1.5642887758285955,1000.8986094206003
977359.25,1.1547585736863382,1.2152770860917954,1000.2701960999563
977387.75,1.3275638505037093,1.6174344747042968,1000.6915842313157
977420.1,1.8471054251518397,1.5641032987826908,1000.8274538954232
977370.94,1.3233674913745341,1.9867899456201046,1000.5668456632461
977368.2,1.9299577150417853,1.878418466036245,1000.3660097562876
977474.06,1.4884005787587486,1.0984828042836887,1000.6033176175118
977516.2,1.6292008702146563,1.4884647367301254,1000.8713179217483
977548.5,1.231572585550002,1.3434200431424541,1000.2502540720587
977601.56,1.0594428885621126,1.792806118074879,1000.6697260484109
977727.0,1.0060516819136265,1.645326296146113,1000.4741749024869
977763.56,1.0507202115683647,1.6237747177406525,1000.2499115344453
977850.3,1.2089247454665881,1.7244384563558568,1000.94737687188
977955.9,1.465283322194823,1.7425996650706495,1000.971381126492
978075.2,1.5381577220827705,1.1545860758758335,1000.5215959987373
978229.9,1.1206115727215213,1.4778568073991445,1000.7396003944948
978355.0,1.630621073037665,1.700721320778301,1000.8706748255463
978338.7,1.3616734014805814,1.6563368801847709,1000.7845774086038
978297.4,1.6805499375380233,1.0590620077427615,1000.9822686489988
978280.56,1.5364335318466342,1.3642214718559438,1000.8130013294095
978225.3,1.0382738813627,1.279790652338535,1000.5543451357582
978158.3,1.6828059619523312,1.3158111212523185,1000.7819797788827
978145.44,1.0624288594054667,1.83587091878696,1000.010205375785
978163.4,1.1884020847465804,1.160353335187677,1000.2262070951523
978144.5,1.2549159754658676,1.9279904453135193,1000.3008568477875
978162.94,1.8466176872715057,1.2293238621610132,1000.2809969034785
978197.3,1.007774806162395,1.1791998383555202,1000.2433353306785
978247.75,1.9020736814565784,1.314914519511273,1000.5900745127091
978291.94,1.2930494999921762,1.4216943202790933,1000.0125910316611
978251.56,1.2755908575032457,1.3357216788617459,1000.7122853455635
978213.8,1.6099102688089437,1.9107591270461892,1000.4535236258199
978192.1,1.6683612359411146,1.432321046924566,1000.2692008378968
978259.6,1.88733824019743,1.508243112061935,1000.1462267854405
978264.75,1.3403101509444437,1.468855652149542,1000.6415597183496
978093.1,1.959057405905594,1.1697269128308503,1000.9399095577347
977903.56,1.0874370709975347,1.8204402318824506,1000.3046629873069
977747.75,1.8531571275322503,1.9818787501391786,1000.7966756447822
977585.7,1.7063029208393874,1.013395079481136,1000.9832431083048
977361.5,1.6247924046327724,1.0964833172945117,1000.0559106778848
977235.3,1.9712221527510987,1.1776171085094531,1000.8966857063767
977085.3,1.4009399891966532,1.8365198904350133,1000.3126261684257
976987.25,1.1513290027608905,1.6654622569920599,1000.8098763456203
976825.1,1.4475246115295173,1.0567510831335003,1000.8293517826314
976728.4,1.4481021746077316,1.317461344268513,1000.6454164669742
976680.56,1.8314933167803187,1.0891877744003784,1000.2471753588356
976537.9,1.2963563834380736,1.9771377549545823,1000.1951976774275
976399.75,1.3150072416400695,1.9339637592683365,1000.8000338711098
976282.2,1.9109395626047165,1.088004832148696,1000.7627360832131
976224.9,1.5323985889078076,1.5368352449174476,1000.9756115423365
976127.06,1.130110314106351,1.0142281043950583,1000.5979539127992
976061.5,1.7933522985934847,1.9567930777208207,1000.5800732771401
975854.2,1.4245034131014545,1.4589082060395722,1000.7280129772353
975667.75,1.7717546538151343,1.7687093209081437,1000.8103826804529
975479.44,1.6508962117868002,1.2681694589048103,1000.8532648927094
975366.44,1.0764231332839818,1.2888637994521164,1000.7934355526863
975254.1,1.777312455676785,1.0737530982510084,1000.7161902637262
975159.9,1.6652061738557502,1.6896248463238015,1000.2897822949444
975124.3,1.8861776833673922,1.239885355420495,1000.5708491006563
975079.1,1.020039102864612,1.5710581193098845,1000.161282712627
975011.1,1.1642807054912268,1.855493742500409,1000.9304491689516
975044.0,1.3105723620275338,1.0356827088375393,1000.1469098166309
975095.7,1.6453528081315474,1.0037391600778163,1000.0259161817597
975133.44,1.7936523911057392,1.096386727580181,1000.0719689458524
975209.8,1.727472964811597,1.6358328249051162,1000.2890113510273
975293.56,1.6906361923717417,1.9580661940375137,1000.3329516426348
975314.0,1.7359233095191242,1.5576764242034478,1000.6522700906453
975432.3,1.8001606912835522,1.449863079097356,1000.4617135900016
975536.75,1.2608570392635041,1.8883325296435594,1000.1037645249178
975569.06,1.903782654537581,1.443878287982462,1000.9266407042822
975626.9,1.6144120443213552,1.5637524170806538,1000.6013010637785
975689.6,1.0757636763188965,1.9558557397936873,1000.7513278359501
975762.3,1.8969276128231263,1.3507596293132331,1000.5951460624913
975822.44,1.923094543335116,1.0551676593820252,1000.7901340800815
975941.25,1.0593512026387217,1.1721402044707248,1000.538734308002
976078.56,1.5565998840150455,1.6048811707235586,1000.2720812643853
976167.1,1.0357561136790245,1.3576579504260606,1000.6403378012311
976282.06,1.867032305965224,1.3341317604539742,1000.0941530933181
976407.9,1.504648419869046,1.365215900245393,1000.6467408452041
976548.1,1.861662385968947,1.7211967036589093,1000.1216992868524
976645.44,1.7013807424689866,1.5643851471036008,1000.9978164035069
976755.1,1.3952711771643278,1.1815287070003064,1000.0932479128215
976871.06,1.2874197562448275,1.5965877246237739,1000.915673598809
976968.7,1.8152825108589703,1.7463732772400427,1000.0590852536372
977142.56,1.477221418268959,1.4091818698228045,1000.6536564413502
977162.5,1.6929585492023076,1.7365184489794179,1000.9118783677109
977097.0,1.8664129934762927,1.187687783552878,1000.5469339303919
977099.0,1.0603133421232915,1.2327768492252185,1000.4935196835372
977090.0,1.98366555506697,1.8325338222641503,1000.2470494860981
977070.6,1.6038989906828431,1.365796248211995,1000.364523950233
977054.0,1.2352960654714655,1.0514773919001363,1000.998946603333
977098.44,1.5334428781030405,1.7109715001497467,1000.7217393708594
977129.1,1.530822869107781,1.7923478941358182,1000.5279899490733
977134.44,1.8221154174711784,1.2184826097757013,1000.3589605511587
977117.0,1.555297260067103,1.2779199062163156,1000.9951083618569
977104.56,1.8076422364236624,1.276698297979169,1000.6650295783852
977064.4,1.859557949234203,1.4374804766836176,1000.0264133366286
977078.94,1.0329968434694665,1.5390923773888066,1000.9932743888958
977057.9,1.6761766336192527,1.7477739882590542,1000.2981109364507
977094.3,1.5875960949688368,1.435276409998869,1000.9711927715756
977069.94,1.352972220732254,1.6316753678273939,1000.8919714134711
977040.75,1.3435441144200366,1.236023790375019,1000.6895516489906
977055.3,1.831529703391484,1.9779878133594506,1000.1728408498303
976908.56,1.9919384812267142,1.796223635152883,1000.3583994281638
976734.2,1.5925068116698253,1.1579079088717532,1000.1268424549926
976606.8,1.9469858145525611,1.365895365316176,1000.9612767994095
976483.75,1.9556464266210347,1.9341361048626666,1000.6564874324937
976340.7,1.7334668935936635,1.5921684855222302,1000.167335617186
976239.5,1.4213759649598265,1.3308302659227134,1000.5181221497182
976189.06,1.7152284088862655,1.5801387231616024,1000.5992369507006
976054.8,1.1693531422827634,1.3267790759443403,1000.9460856219923
975927.3,1.2576275872804785,1.8695151505212206,1000.2331995691361
975879.0,1.363410747066018,1.5835380702131507,1000.3757132206266
975744.75,1.3965005632714043,1.450321074543159,1000.1512212288792
975661.6,1.0751437996402373,1.0663532237090925,1000.4235544066403
975573.8,1.9221231486365875,1.5490941077277336,1000.2944418197897
975552.9,1.9267985974183854,1.7348001610052928,1000.8534698209338
975447.44,1.3965556747127743,1.8255599282811366,1000.3741250766307
975364.75,1.9435461076845422,1.6043722073689821,1000.7944380904192
975344.9,1.263537409558137,1.810871539874165,1000.8734720352018
975267.94,1.790549176378395,1.148848681957666,1000.626829864827
975104.06,1.2822368823373766,1.3784389383063727,1000.3422120781808
975111.56,1.9464533331880127,1.9569952826648456,1000.1075840539015
975052.0,1.4545803018125172,1.137138414082374,1000.224035252769
974957.75,1.9720780141982708,1.003395139235461,1000.6156061321338
974926.3,1.0183342587523367,1.4405576973619003,1000.0890325310484
974953.2,1.6371296393026724,1.5604220420054955,1000.7437145473381
974968.3,1.1643331448300955,1.9580806449055568,1000.8570920084728
975005.4,1.101784155638597,1.3166989227945667,1000.8623268526181
975125.8,1.754065707768154,1.3098348202243923,1000.7540445698241
975256.94,1.5336642405580143,1.9347404566215367,1000.2052865030221
975293.94,1.9215780340752957,1.4908611030105459,1000.9591352987907
975407.3,1.1508148275336398,1.847778711058242,1000.935981796829
975507.8,1.0855998406321428,1.4960728154867389,1000.34933085634
975658.7,1.0678984897805726,1.67405016349552,1000.0477702312619
975791.8,1.6720927146675657,1.553089232056899,1000.8385229205655
975950.2,1.9704703945182804,1.287159687835778,1000.4151081546581
975940.0,1.9048996236179767,1.0613133486043367,1000.1530841630951
975992.7,1.7330518377103583,1.1984552383984808,1000.0653328145864
976088.7,1.4754387938862923,1.4596529244105332,1000.5761041604534
976171.94,1.4508156666436753,1.106760462765099,1000.0268225423588
976211.94,1.746372578110227,1.4066232297816612,1000.3733008208941
976340.25,1.2212095033539074,1.6567270465794195,1000.0801000623753
976407.9,1.711560249581506,1.334353543161931,1000.1875181251751
976483.8,1.654573174335936,1.1791635897595545,1000.2314708765412
976523.4,1.6683457153449015,1.4859535745760484,1000.4598283023291
976658.94,1.3682098967838674,1.5461099895309007,1000.2012590123422
976813.44,1.5017686259518181,1.807076952068814,1000.1169374152137
976901.75,1.6243284654333126,1.1797711190735791,1000.8224163932563
976983.8,1.2024865717726834,1.187800466039782,1000.4846956102504
977106.56,1.6167985807371332,1.5718304592000862,1000.3595388852098
977218.56,1.6394839867876996,1.41387211256529,1000.9600423912932
977356.7,1.9454723041224637,1.2091881165337741,1000.1866043556349
977485.8,1.498003115900409,1.868336015251792,1000.1185345697496
977501.94,1.971487967271325,1.9769350694896615,1000.8525340871656
977456.6,1.6941831852513425,1.6670315038703687,1000.9763213497605
977492.2,1.0986943440599373,1.5313020647102837,1000.7078631829704
977462.44,1.7507530698835674,1.6690714900760844,1000.8208532530488
977480.94,1.640648376875457,1.6218150978049002,1000.3400473022047
977467.0,1.4957931802893858,1.8060650820687991,1000.8919652494396
977490.1,1.1147373349322764,1.1307126521773823,1000.2955068031529
977556.06,1.6365017948138965,1.36463375773653,1000.8005548309203
977610.44,1.2736405087238976,1.7020796263345521,1000.2016460041888
977622.0,1.5692577876421538,1.7989935795399077,1000.656067132296
977700.8,1.6379975390873969,1.900471588546874,1000.4404096215711
977768.4,1.9715616026169966,1.0390736158849867,1000.4049726358497
977798.7,1.2011593723884137,1.335438563266547,1000.4680834426101
977879.25,1.1774769179695328,1.9156309582134168,1000.2261835141776
977868.44,1.7935270647093207,1.3957927955745322,1000.8119885007503
977869.8,1.387321132881437,1.2937293846817095,1000.269377854214
977893.06,1.0307704142033942,1.1872952032011315,1000.6532871386422
977913.8,1.0379402791894266,1.1988925593121185,1000.7851994199954
977800.2,1.731298377032045,1.0052552949110642,1000.5228796337084
977619.44,1.462756102991561,1.8913507072645146,1000.1617072798977
977465.8,1.2361449849631132,1.4095193025751476,1000.007738814459
977324.3,1.9658022506060924,1.0686286504001974,1000.1414281062508
977163.0,1.5470104821329729,1.4375092767380753,1000.3326997050497
977030.1,1.984099252752313,1.51435929315614,1000.511564297691
976992.8,1.3847973078542024,1.767859447298483,1000.1246318243873
976930.4,1.1563541166984992,1.6637011008734177,1000.4856927795536
976799.6,1.7025479569078685,1.750690005912643,1000.7255140296681
976655.3,1.0937212449215008,1.9054111148183281,1000.0543828373277
976579.2,1.7085262737120626,1.7834186946157082,1000.7833554823018
976488.75,1.2361833610785533,1.676135590888121,1000.0610464524467
976356.0,1.68974354187203,1.1049594348779799,1000.7001579386515
976260.94,1.0591059287831477,1.902043683786884,1000.6884829211571
976226.2,1.6855402900532717,1.988796730943426,1000.5920299858597
976154.7,1.784717518977053,1.0942158472729058,1000.4646214946754
976040.3,1.9978304957521371,1.7425198199862577,1000.7398168002032
975995.44,1.8361099165097552,1.4156466664157685,1000.7634690634954
975821.3,1.6464562439175023,1.7572190275109558,1000.8220474638503
975620.25,1.6046405760906355,1.4167982126052059,1000.4527255421947
975474.75,1.7196875817538868,1.55358732401777,1000.9794885937337
975358.75,1.3356631168073463,1.616358789894364,1000.1917236789575
975249.56,1.3124437763374968,1.7048059997625356,1000.8597123991658
975207.7,1.0548822118617016,1.0628068458372382,1000.4527055100599
975185.3,1.0880249693896564,1.5746627553226906,1000.7915504040649
975161.25,1.5613562773705314,1.150022150862158,1000.9247119557137
975091.44,1.119603007296177,1.99820716728323,1000.8949512629051
975091.7,1.7947250812031323,1.411467438350695,1000.6961334903513
975147.56,1.1588122551724576,1.0726108654213304,1000.7815934344859
975162.0,1.572806849088988,1.3140499544839734,1000.6031108340005
975176.25,1.177833550236032,1.2211130283182952,1000.7593331167355
975291.25,1.7509173009030767,1.9158901754136206,1000.1025303070413
975386.94,1.0378501685588835,1.120572544114412,1000.9500003518817
975473.4,1.0651975850867408,1.7755780344093715,1000.3068942873396
975577.75,1.0625066601992188,1.7335834905203056,1000.0806311640519
975601.75,1.2115732150864222,1.4568777882747046,1000.9424798384516
975536.9,1.249098308162988,1.9363064374907588,1000.20994834219
975608.94,1.2190470682915144,1.2387563954816259,1000.5749966393566
975720.06,1.7435994531926586,1.4885910877329647,1000.2577153940098
975702.44,1.7889066031242717,1.1936530005670565,1000.451261949655
975748.2,1.301831739552587,1.9976611770262056,1000.1393833766024
975826.1,1.3411813529261112,1.1705271193667606,1000.6457287825821
975901.0,1.1587510478958787,1.149781481467873,1000.2409429191484
975944.5,1.254125066195765,1.6803290446558696,1000.2922348653784
976075.2,1.1670209050801428,1.5410973939635744,1000.3792570233105
976237.3,1.47395598268759,1.0674302365205772,1000.0647214679258
976305.75,1.8833292205866263,1.5416604839684251,1000.1630229802166
976446.0,1.9851419023762145,1.0063374629933644,1000.988508545175
976567.8,1.1328208952980805,1.0816800763075185,1000.8948080172157
976699.75,1.0320445077663254,1.7066021009822112,1000.8957482661934
976818.9,1.573875942076044,1.5849080321995492,1000.5416235507344
976932.0,1.7304986717351085,1.4432831937172694,1000.6393225460616
977104.7,1.4197198434747806,1.6409719344329217,1000.4463560774061
977140.6,1.6880243483190536,1.9890571175049119,1000.7925633982167
977153.75,1.3359136125992936,1.848306084184427,1000.5713924762547
977113.56,1.5060663243305958,1.2157569813703093,1000.7313931835862
977146.7,1.752496528924064,1.990727373878199,1000.1899932490853
977195.1,1.1168848867497547,1.265749557265052,1000.8867176821668
977213.9,1.059564751016312,1.8700752686281474,1000.0445142626495
977311.25,1.3004769069369941,1.6920318622399486,1000.3232577426854
977374.2,1.124320472822923,1.5304679409770703,1000.7388730169657
977401.7,1.3631177713162292,1.017608592294898,1000.6586288020947
977458.44,1.9057869006419212,1.3591777049598979,1000.0711514393768
977560.6,1.9528963858175556,1.8123409139477107,1000.5465814989338
977634.1,1.7097665015213899,1.0558783245260552,1000.929769120687
977709.94,1.7791268964945388,1.6097852909991313,1000.6687649367163
977778.6,1.4657807632016502,1.9846534389506831,1000.0292860654384
977913.94,1.9595471615849511,1.7918708609142338,1000.4926228248597
977994.3,1.2651067225477348,1.6326757253419235,1000.2983721722404
978054.9,1.1041902269528374,1.966646893341774,1000.7277446088648
978098.44,1.7821822322403276,1.6921382892000985,1000.5569133840327
978130.9,1.0336029302044607,1.7529709917158485,1000.9098016911613
977977.75,1.3187748577534852,1.2546202385316536,1000.557098063171
977823.2,1.559118674300254,1.0046781468238837,1000.8422536932844
977713.25,1.2316917267415675,1.9528158585932314,1000.3509132802292
977596.8,1.44785114734086,1.4795784056095347,1000.054244818831
977488.25,1.3864470936247517,1.88136961671019,1000.070036220995
977400.0,1.1264669571022443,1.3284180996673836,1000.9365930474369
977298.25,1.434115640733693,1.8978404135521023,1000.7949211578074
977250.3,1.315192628534372,1.925812364420362,1000.5742730912816
977113.1,1.3179552739167177,1.6020846144874858,1000.5241778681358
977066.44,1.7173394307454917,1.1771764827264852,1000.7179318514109
976981.1,1.300710810087332,1.8317748693314606,1000.0057227364018
976875.0,1.0796622522827581,1.548608929988805,1000.5531262698529
976812.75,1.1765788546237799,1.3441551406171741,1000.7600121341607
976759.7,1.2424763685906473,1.2793006263692195,1000.338675365755
976735.9,1.4480303807503228,1.9815415345434717,1000.4276014460216
976645.7,1.498645837307073,1.0897644368520636,1000.4784040112507
976585.9,1.9918132298582305,1.5315759999336214,1000.6278992943287
976518.0,1.643102140442938,1.624422985907792,1000.043143831844
976354.5,1.7065309693483153,1.5215937258820975,1000.9912128621709
976163.9,1.253062450112326,1.4022461555891041,1000.4600945458387
976099.7,1.53661513309775,1.1869201664932807,1000.8285733867233
975953.1,1.1535165196801553,1.2384188381345351,1000.6175008659899
975807.1,1.1987413102872884,1.5864124569260372,1000.583856857088
975701.6,1.3795194021254724,1.9254775164158775,1000.9264775223986
975673.25,1.2817076254587496,1.4858932555828792,1000.8484439753481
975657.9,1.2582190603125838,1.408041739084434,1000.43271560033
975580.4,1.1107911422074315,1.7341659767613682,1000.238512712878
975637.0,1.0053428083471543,1.4143751326069052,1000.4485352481889
975653.6,1.9095368145332976,1.956403970714784,1000.5135746340346
975690.25,1.7772066242008802,1.4611702743624773,1000.8381612796354
975722.25,1.6642790347091077,1.666470402468091,1000.3793968401361
975793.6,1.8850566887617517,1.3413815746912834,1000.4579255138152
975911.94,1.5703911363497713,1.2991592062524697,1000.9533843396246
975990.8,1.3551904800495982,1.738539146088895,1000.4574919685924
