HR,HR_Confidence,IBI,IBI_Confidence
60.0,0.0,0.0,0
60.0,0.0,0.0,0
60.0,0.0,0.0,0
60.0,0.0,0.0,0
60.0,0.0,0.0,0
60.0,0.0,0.0,0
60.0,0.0,0.0,0
60.0,0.0,0.0,0
60.0,0.0,0.0,0
60.0,0.0,0.0,0
60.0,0.0,0.0,0
60.0,0.0,0.0,0
60.0,0.0,0.0,0
60.0,0.0,0.0,0
60.0,0.0,0.0,0
60.0,0.0,0.0,0
60.0,0.0,0.0,0
60.0,0.0,0.0,0
60.0,0.0,0.0,0
60.0,0.0,0.0,0
60.0,0.0,0.0,0
60.0,0.0,0.0,0
60.0,0.0,0.0,0
60.0,0.0,0.0,0
60.0,0.0,0.0,0
60.0,0.0,0.0,0
60.0,0.0,0.0,0
60.0,0.0,0.0,0
60.0,0.0,0.0,0
60.0,0.0,0.0,0
60.0,0.0,0.0,0
60.0,0.0,0.0,0
60.0,0.0,0.0,0
60.0,0.0,0.0,0
60.0,0.0,0.0,0
60.0,0.0,0.0,0
60.0,0.0,0.0,0
60.0,0.0,0.0,0
60.0,0.0,0.0,0
60.0,0.0,0.0,0
60.0,0.0,0.0,0
60.0,0.0,0.0,0
60.0,0.0,0.0,0
60.0,0.0,0.0,0
60.0,0.0,0.0,0
60.0,0.0,0.0,0
60.0,0.0,0.0,0
60.0,0.0,0.0,0
60.0,0.0,0.0,0
60.0,0.0,0.0,0
60.0,0.0,0.0,0
60.0,0.0,0.0,0
60.0,0.0,0.0,0
60.0,0.0,0.0,0
60.0,0.0,0.0,0
60.0,0.0,0.0,0
60.0,0.0,0.0,0
60.0,0.0,0.0,0
60.0,0.0,0.0,0
60.0,0.0,0.0,0
60.0,0.0,0.0,0
60.0,0.0,0.0,0
60.0,0.0,0.0,0
60.0,0.0,0.0,0
60.0,0.0,0.0,0
60.0,0.0,0.0,0
60.0,0.0,0.0,0
60.0,0.0,0.0,0
60.0,0.0,0.0,0
60.0,0.0,0.0,0
60.0,0.0,0.0,0
60.0,0.0,0.0,0
60.0,0.0,0.0,0
60.0,0.0,0.0,0
60.0,0.0,0.0,0
60.0,0.0,0.0,0
60.0,0.0,0.0,0
60.0,0.0,0.0,0
60.0,0.0,0.0,0
60.0,0.0,0.0,0
60.0,0.0,0.0,0
60.0,0.0,0.0,0
60.0,0.0,0.0,0
60.0,0.0,0.0,0
60.0,0.0,0.0,0
60.0,0.0,0.0,0
60.0,0.0,0.0,0
60.0,0.0,0.0,0
60.0,0.0,0.0,0
60.0,0.0,0.0,0
60.0,0.0,0.0,0
60.0,0.0,0.0,0
60.0,0.0,0.0,0
60.0,0.0,0.0,0
60.0,0.0,0.0,0
60.0,0.0,0.0,0
60.0,0.0,0.0,0
60.0,0.0,0.0,0
60.0,0.0,0.0,0
60.0,0.0,0.0,0
60.0,0.0,0.0,0
60.0,0.0,0.0,0
60.0,0.0,0.0,0
60.0,0.0,0.0,0
60.0,0.0,0.0,0
60.0,0.0,0.0,0
60.0,0.0,0.0,0
60.0,0.0,0.0,0
60.0,0.0,0.0,0
60.0,0.0,0.0,0
60.0,0.0,0.0,0
60.0,0.0,0.0,0
60.0,0.0,1936.503052,50
60.0,0.0,0.0,0
60.0,0.0,0.0,0
60.0,0.0,0.0,0
60.0,0.0,0.0,0
60.0,0.0,0.0,0
60.0,0.0,0.0,0
60.0,0.0,0.0,0
60.0,0.0,0.0,0
60.0,0.0,0.0,0
60.0,0.0,0.0,0
60.0,0.0,0.0,0
60.0,0.0,0.0,0
60.0,0.0,0.0,0
60.0,0.0,0.0,0
60.0,0.0,0.0,0
60.0,0.0,0.0,0
60.0,0.0,727.408447,25
60.0,0.0,0.0,0
60.0,0.0,0.0,0
60.0,0.0,0.0,0
60.0,0.0,0.0,0
60.0,0.0,0.0,0
60.0,0.0,0.0,0
60.0,0.0,0.0,0
60.0,0.0,0.0,0
60.0,0.0,0.0,0
60.0,0.0,0.0,0
60.0,0.0,0.0,0
60.0,0.0,0.0,0
60.0,0.0,0.0,0
60.0,0.0,0.0,0
60.0,0.0,0.0,0
60.0,0.0,0.0,0
60.0,0.0,0.0,0
60.0,0.0,0.0,0
60.0,0.0,747.975403,50
60.0,0.0,0.0,0
60.0,0.0,0.0,0
60.0,0.0,0.0,0
60.0,0.0,0.0,0
60.0,0.0,0.0,0
60.0,0.0,0.0,0
60.0,0.0,0.0,0
60.0,0.0,0.0,0
60.0,0.0,0.0,0
60.0,0.0,0.0,0
60.0,0.0,0.0,0
60.0,0.0,0.0,0
60.0,0.0,0.0,0
60.0,0.0,0.0,0
60.0,0.0,0.0,0
60.0,0.0,0.0,0
60.0,0.0,0.0,0
68.403435,0.0,738.854797,100
68.403435,0.0,0.0,0
68.403435,0.0,0.0,0
68.403435,0.0,0.0,0
68.403435,0.0,0.0,0
68.403435,0.0,0.0,0
68.403435,0.0,0.0,0
68.403435,0.0,0.0,0
68.403435,0.0,0.0,0
68.403435,0.0,0.0,0
68.403435,0.0,0.0,0
68.403435,0.0,0.0,0
68.403435,0.0,0.0,0
68.403435,0.0,0.0,0
68.403435,0.0,0.0,0
68.403435,0.0,0.0,0
68.403435,0.0,0.0,0
68.403435,0.0,0.0,0
68.403435,0.0,0.0,0
68.503433,0.0,708.632385,100
68.598434,0.0,0.0,0
68.688683,0.0,0.0,0
68.774422,0.0,0.0,0
68.855873,0.0,0.0,0
68.93325,0.0,0.0,0
69.00676,0.0,0.0,0
69.076591,0.0,0.0,0
69.142937,0.0,0.0,0
69.205963,0.0,0.0,0
69.265839,0.0,0.0,0
69.322716,0.0,0.0,0
69.376755,0.0,0.0,0
69.428085,0.0,0.0,0
69.476852,0.0,0.0,0
69.523178,0.0,0.0,0
69.567192,0.0,0.0,0
69.609001,0.0,0.0,0
69.64872,0.0,0.0,0
69.686455,0.0,0.0,0
69.786453,0.0,795.933105,100
69.881447,0.0,0.0,0
69.971695,0.0,0.0,0
70.057426,0.0,0.0,0
70.138878,0.0,0.0,0
70.216255,0.0,0.0,0
70.289764,0.0,0.0,0
70.359596,0.0,0.0,0
70.425934,0.0,0.0,0
70.488953,0.0,0.0,0
70.54882,0.0,0.0,0
70.605698,0.0,0.0,0
70.659729,0.0,0.0,0
70.71106,0.0,0.0,0
70.759827,0.0,0.0,0
70.806152,0.0,0.0,0
70.850166,0.0,0.0,0
70.891975,0.0,755.394836,100
70.931694,0.0,0.0,0
70.969429,0.0,0.0,0
71.00528,0.0,0.0,0
71.039337,0.0,0.0,0
71.071686,0.0,0.0,0
71.102417,0.0,0.0,0
71.131615,0.0,0.0,0
71.159355,0.0,0.0,0
71.185707,0.0,0.0,0
71.210739,0.0,0.0,0
71.23452,0.0,0.0,0
71.257111,0.0,0.0,0
71.278572,0.0,0.0,0
71.298965,0.0,0.0,0
71.318336,0.0,0.0,0
71.336739,0.0,0.0,0
71.354218,0.0,0.0,0
71.370827,0.0,0.0,0
71.386604,0.0,0.0,0
71.401596,0.0,0.0,0
71.415833,0.0,754.002014,100
71.429359,0.0,0.0,0
71.442207,0.0,0.0,0
71.454414,0.0,0.0,0
71.466011,0.0,0.0,0
71.477028,0.0,0.0,0
71.487495,0.0,0.0,0
71.497437,0.0,0.0,0
71.506882,0.0,0.0,0
71.515854,0.0,0.0,0
71.524384,0.0,0.0,0
71.532486,0.0,0.0,0
71.540184,0.0,0.0,0
71.547493,0.0,0.0,0
71.554436,0.0,0.0,0
71.561035,0.0,0.0,0
71.567299,0.0,0.0,0
71.57325,0.0,733.900269,100
71.578903,0.0,0.0,0
71.584274,0.0,0.0,0
71.589378,0.0,0.0,0
71.594231,0.0,0.0,0
71.598839,0.0,0.0,0
71.603218,0.0,0.0,0
71.607376,0.0,0.0,0
71.611328,0.0,0.0,0
71.615082,0.0,0.0,0
71.618645,0.0,0.0,0
71.622032,0.0,0.0,0
71.625252,0.0,0.0,0
71.628311,0.0,0.0,0
71.631218,0.0,0.0,0
71.63398,0.0,0.0,0
71.636597,0.0,0.0,0
71.639084,0.0,0.0,0
71.641449,0.0,0.0,0
71.643692,0.0,748.869141,100
71.645828,0.0,0.0,0
71.647858,0.0,0.0,0
71.64978,0.0,0.0,0
71.651611,0.0,0.0,0
71.653351,0.0,0.0,0
71.654999,0.0,0.0,0
71.65657,0.0,0.0,0
71.658058,0.0,0.0,0
71.659477,0.0,0.0,0
71.66082,0.0,0.0,0
71.662102,0.0,0.0,0
71.663315,0.0,0.0,0
71.664467,0.0,0.0,0
71.665565,0.0,0.0,0
71.666603,0.0,0.0,0
71.667595,0.0,0.0,0
71.668533,0.0,0.0,0
71.669426,0.0,777.718262,100
71.670273,0.0,0.0,0
71.671082,0.0,0.0,0
71.671844,0.0,0.0,0
71.672569,0.0,0.0,0
71.673264,0.0,0.0,0
71.67392,0.0,0.0,0
71.674545,0.0,0.0,0
71.67514,0.0,0.0,0
71.675705,0.0,0.0,0
71.676239,0.0,0.0,0
71.676743,0.0,0.0,0
71.677223,0.0,0.0,0
71.677681,0.0,0.0,0
71.678116,0.0,0.0,0
71.678528,0.0,0.0,0
71.678917,0.0,0.0,0
71.679291,0.0,0.0,0
71.679642,0.0,0.0,0
71.679977,0.0,0.0,0
71.680298,0.0,716.615723,100
71.680603,0.0,0.0,0
71.680893,0.0,0.0,0
71.681168,0.0,0.0,0
71.681427,0.0,0.0,0
71.681671,0.0,0.0,0
71.681908,0.0,0.0,0
71.682129,0.0,0.0,0
71.682343,0.0,0.0,0
71.682541,0.0,0.0,0
71.682732,0.0,0.0,0
71.682915,0.0,0.0,0
71.68309,0.0,0.0,0
71.683258,0.0,0.0,0
71.683411,0.0,0.0,0
71.683556,0.0,0.0,0
71.683701,0.0,0.0,0
71.683838,0.0,709.900452,100
71.683968,0.0,0.0,0
71.68409,0.0,0.0,0
71.684204,0.0,0.0,0
71.684311,0.0,0.0,0
71.684418,0.0,0.0,0
71.684517,0.0,0.0,0
71.684608,0.0,0.0,0
71.6847,0.0,0.0,0
71.684784,0.0,0.0,0
71.68486,0.0,0.0,0
71.684937,0.0,0.0,0
71.685005,0.0,0.0,0
71.685074,0.0,0.0,0
71.685143,0.0,0.0,0
71.685204,0.0,0.0,0
71.685265,0.0,0.0,0
71.685318,0.0,0.0,0
71.685371,0.0,0.0,0
71.685425,0.0,722.601562,100
71.685471,0.0,0.0,0
71.685516,0.0,0.0,0
71.685562,0.0,0.0,0
71.6856,0.0,0.0,0
71.685638,0.0,0.0,0
71.685677,0.0,0.0,0
71.685715,0.0,0.0,0
71.685745,0.0,0.0,0
71.685776,0.0,0.0,0
71.685806,0.0,0.0,0
71.685837,0.0,0.0,0
71.685867,0.0,0.0,0
71.68589,0.0,0.0,0
71.685913,0.0,0.0,0
71.685936,0.0,0.0,0
71.685959,0.0,753.131836,100
71.685982,0.0,0.0,0
71.686005,0.0,0.0,0
71.68602,0.0,0.0,0
71.686035,0.0,0.0,0
71.68605,99.997765,0.0,0
71.686066,99.997879,0.0,0
71.686081,99.997978,0.0,0
71.686096,99.998077,0.0,0
71.686111,99.998177,0.0,0
71.686127,99.998268,0.0,0
71.686142,99.998352,0.0,0
71.686157,99.998436,0.0,0
71.686165,99.998512,0.0,0
71.686172,99.998589,0.0,0
71.68618,99.99865,0.0,0
71.686188,99.998718,0.0,0
71.686195,99.998779,0.0,0
71.686203,99.99884,0.0,0
71.686211,99.998894,0.0,0
71.686218,99.998955,0.0,0
71.686226,99.999001,0.0,0
71.686234,99.999046,0.0,0
71.686241,99.9991,0.0,0
71.686249,99.999138,0.0,0
71.686256,99.999184,0.0,0
71.686264,99.999229,0.0,0
71.686272,99.99926,0.0,0
71.686279,99.999298,0.0,0
71.686287,99.999336,0.0,0
71.686295,99.999367,0.0,0
71.686302,99.999397,0.0,0
71.68631,99.999428,0.0,0
71.68631,99.999458,0.0,0
71.68631,99.999481,0.0,0
71.68631,99.999504,0.0,0
71.68631,99.999535,0.0,0
71.68631,99.999557,0.0,0
71.68631,99.999573,746.133972,100
71.68631,99.999596,0.0,0
71.68631,99.999611,0.0,0
71.68631,99.999626,0.0,0
71.68631,99.999649,0.0,0
71.68631,99.999664,0.0,0
71.68631,99.999687,0.0,0
71.68631,99.999695,0.0,0
71.68631,99.99971,0.0,0
71.68631,99.999718,0.0,0
71.68631,99.999733,0.0,0
71.68631,99.999748,0.0,0
71.68631,99.999756,0.0,0
71.68631,99.999771,0.0,0
71.68631,99.999779,0.0,0
71.68631,99.999794,0.0,0
71.68631,99.999809,0.0,0
71.68631,99.999809,0.0,0
71.68631,99.999817,0.0,0
71.68631,99.999825,0.0,0
71.68631,99.999832,0.0,0
71.68631,99.99984,0.0,0
71.68631,99.99984,0.0,0
71.68631,99.999847,0.0,0
71.68631,99.999847,1539.911987,25
71.68631,99.999847,0.0,0
71.68631,99.999847,0.0,0
71.68631,99.999847,0.0,0
71.68631,99.999847,0.0,0
71.68631,99.999847,0.0,0
71.68631,99.999847,0.0,0
71.68631,99.999847,0.0,0
71.68631,99.999847,0.0,0
71.68631,99.999847,0.0,0
71.68631,99.999847,593.501892,25
71.68631,99.999847,0.0,0
71.68631,99.999847,0.0,0
71.68631,99.999847,0.0,0
71.68631,99.999847,0.0,0
71.68631,99.999847,0.0,0
71.68631,99.999847,0.0,0
71.68631,99.999847,0.0,0
71.68631,99.999847,354.65744,25
71.68631,99.999847,0.0,0
71.68631,99.999847,0.0,0
71.68631,99.999847,0.0,0
71.68631,99.999847,0.0,0
71.68631,99.999847,0.0,0
71.68631,99.999847,0.0,0
71.68631,99.999847,0.0,0
71.68631,99.999847,0.0,0
71.68631,99.999847,0.0,0
71.68631,99.999847,0.0,0
71.68631,99.999847,0.0,0
71.68631,99.999847,0.0,0
71.68631,99.999847,0.0,0
71.68631,99.999847,0.0,0
71.68631,99.999847,0.0,0
71.68631,99.999847,0.0,0
71.68631,99.999847,0.0,0
71.68631,99.999847,0.0,0
71.68631,99.999847,0.0,0
71.68631,99.999847,0.0,0
71.68631,99.999847,0.0,0
71.68631,99.999847,0.0,0
71.68631,99.999847,0.0,0
71.68631,99.999847,0.0,0
71.68631,99.999847,0.0,0
71.68631,99.999847,0.0,0
71.68631,99.999847,0.0,0
71.68631,99.999847,0.0,0
71.68631,99.999847,0.0,0
71.68631,99.999847,0.0,0
71.68631,99.999847,0.0,0
71.68631,99.999847,0.0,0
71.68631,99.999847,0.0,0
71.68631,99.999847,0.0,0
71.68631,99.999847,0.0,0
71.68631,99.999847,0.0,0
71.68631,99.999847,0.0,0
71.68631,99.999847,0.0,0
71.68631,99.999847,0.0,0
71.68631,99.999847,0.0,0
71.68631,99.999847,0.0,0
71.68631,99.999847,0.0,0
71.68631,99.999847,0.0,0
71.68631,99.999847,0.0,0
71.68631,99.999847,0.0,0
71.68631,99.999847,0.0,0
71.68631,99.999847,0.0,0
71.68631,99.999847,1080.972656,25
71.68631,99.999847,0.0,0
71.68631,99.999847,0.0,0
71.68631,99.999847,0.0,0
71.68631,99.999847,0.0,0
71.68631,99.999847,0.0,0
71.68631,99.999847,0.0,0
71.68631,99.999847,0.0,0
71.68631,99.999847,0.0,0
71.68631,99.999847,0.0,0
71.68631,99.999847,0.0,0
71.68631,99.999847,0.0,0
71.68631,99.999847,0.0,0
71.68631,99.999847,0.0,0
71.68631,99.999847,0.0,0
71.68631,99.999847,0.0,0
71.68631,99.999847,0.0,0
71.68631,99.999847,0.0,0
71.68631,99.999847,0.0,0
71.68631,99.999847,0.0,0
71.68631,99.999847,0.0,0
71.68631,99.999847,0.0,0
71.68631,99.999847,0.0,0
71.68631,99.999847,0.0,0
71.68631,99.999847,0.0,0
71.68631,99.999847,0.0,0
71.68631,99.999847,0.0,0
71.68631,99.999847,0.0,0
71.68631,99.999847,0.0,0
71.68631,99.999847,0.0,0
71.68631,99.999847,0.0,0
71.68631,99.999847,0.0,0
71.68631,99.999847,0.0,0
71.68631,99.999847,0.0,0
71.68631,99.999847,0.0,0
71.68631,99.999847,0.0,0
71.68631,99.999847,0.0,0
71.68631,99.999847,0.0,0
71.68631,99.999847,0.0,0
71.68631,99.999847,0.0,0
71.68631,99.999847,0.0,0
71.68631,99.999847,0.0,0
71.68631,99.999847,0.0,0
71.68631,99.999847,0.0,0
71.68631,99.999847,0.0,0
71.68631,99.999847,0.0,0
71.68631,99.999847,0.0,0
71.68631,99.999847,0.0,0
71.68631,99.999847,0.0,0
71.68631,99.999847,0.0,0
71.68631,99.999847,0.0,0
71.68631,99.999847,0.0,0
71.68631,99.999847,0.0,0
71.68631,99.999847,0.0,0
71.68631,99.999847,0.0,0
71.68631,99.999847,0.0,0
71.68631,99.999847,0.0,0
71.68631,99.999847,0.0,0
71.68631,99.999847,0.0,0
71.68631,99.999847,2658.116455,10
71.68631,99.999847,0.0,0
71.68631,99.999847,0.0,0
71.68631,99.999847,0.0,0
71.68631,99.999847,0.0,0
71.68631,99.999847,0.0,0
71.68631,99.999847,0.0,0
71.68631,99.999847,0.0,0
71.68631,99.999847,0.0,0
71.68631,99.999847,0.0,0
71.68631,99.999847,0.0,0
71.68631,99.999847,0.0,0
71.68631,99.999847,0.0,0
71.68631,99.999847,0.0,0
71.68631,99.999847,0.0,0
71.68631,99.999847,0.0,0
71.68631,99.999847,0.0,0
71.68631,99.999847,0.0,0
71.68631,99.999847,0.0,0
71.68631,99.999847,0.0,0
71.68631,99.999847,0.0,0
71.68631,99.999847,0.0,0
71.68631,99.999847,0.0,0
71.68631,99.999847,0.0,0
71.68631,99.999847,0.0,0
71.68631,99.999847,0.0,0
71.68631,99.999847,0.0,0
71.68631,99.999847,0.0,0
71.68631,99.999847,0.0,0
71.68631,99.999847,0.0,0
71.68631,99.999847,0.0,0
71.68631,99.999847,0.0,0
71.68631,99.999847,0.0,0
71.68631,99.999847,0.0,0
71.68631,99.999847,0.0,0
71.68631,99.999847,0.0,0
71.68631,99.999847,0.0,0
71.68631,99.999847,0.0,0
71.68631,99.999847,0.0,0
71.68631,99.999847,0.0,0
71.68631,99.999847,0.0,0
71.68631,99.999847,0.0,0
71.68631,99.999847,0.0,0
71.68631,99.999847,2026.329468,10
71.68631,99.999847,0.0,0
71.68631,99.999847,0.0,0
71.68631,99.999847,0.0,0
71.68631,99.999847,0.0,0
71.68631,99.999847,0.0,0
71.68631,99.999847,0.0,0
71.68631,99.999847,0.0,0
71.68631,99.999847,0.0,0
71.68631,99.999847,0.0,0
71.68631,99.999847,0.0,0
71.68631,99.999847,0.0,0
71.68631,99.999847,0.0,0
71.68631,99.999847,0.0,0
71.68631,99.999847,0.0,0
71.68631,99.999847,0.0,0
71.68631,99.999847,0.0,0
71.68631,99.999847,0.0,0
71.68631,99.999847,0.0,0
71.68631,99.999847,0.0,0
71.68631,99.999847,0.0,0
71.68631,99.999847,774.643799,25
71.68631,99.999847,0.0,0
71.68631,99.999847,0.0,0
71.68631,99.999847,0.0,0
71.68631,99.999847,0.0,0
71.68631,99.999847,0.0,0
71.68631,99.999847,0.0,0
71.68631,99.999847,0.0,0
71.68631,99.999847,0.0,0
71.68631,99.999847,0.0,0
71.68631,99.999847,0.0,0
71.68631,99.999847,0.0,0
71.68631,99.999847,0.0,0
71.68631,99.999847,777.684387,25
71.68631,99.999847,0.0,0
71.68631,99.999847,0.0,0
71.68631,99.999847,0.0,0
71.68631,99.999847,0.0,0
71.68631,99.999847,0.0,0
71.68631,99.999847,0.0,0
71.68631,99.999847,0.0,0
71.68631,99.999847,0.0,0
71.68631,99.999847,0.0,0
71.68631,99.999847,0.0,0
71.68631,99.999847,0.0,0
71.68631,99.999847,0.0,0
71.68631,99.999847,0.0,0
71.68631,99.999847,0.0,0
71.68631,99.999847,0.0,0
71.68631,99.999847,0.0,0
71.68631,99.999847,0.0,0
71.68631,99.999847,0.0,0
71.68631,99.999847,0.0,0
71.68631,99.999847,0.0,0
71.68631,99.999847,0.0,0
71.68631,99.999847,0.0,0
71.68631,99.999847,0.0,0
71.68631,99.999847,0.0,0
71.68631,99.999847,769.979065,50
71.68631,99.999847,0.0,0
71.68631,99.999847,0.0,0
71.68631,99.999847,0.0,0
71.68631,99.999847,0.0,0
71.68631,99.999847,0.0,0
71.68631,99.999847,0.0,0
71.68631,99.999847,0.0,0
71.68631,99.999847,0.0,0
71.68631,99.999847,0.0,0
71.68631,99.999847,0.0,0
71.68631,99.999847,0.0,0
71.68631,99.999847,0.0,0
71.68631,99.999847,0.0,0
71.786308,99.999855,699.84491,100
71.88131,99.999863,0.0,0
71.971565,99.99987,0.0,0
72.057304,99.99987,0.0,0
72.138756,99.999878,0.0,0
72.216133,99.999886,0.0,0
72.289642,99.999893,0.0,0
72.359474,99.999901,0.0,0
72.425819,99.999901,0.0,0
72.488846,99.999908,0.0,0
72.548721,99.999916,0.0,0
72.605606,99.999924,0.0,0
72.659645,99.999924,0.0,0
72.710983,99.999924,0.0,0
72.75975,99.999924,0.0,0
72.806084,99.999924,0.0,0
72.850098,99.999924,0.0,0
72.891907,99.999924,0.0,0
72.931625,99.999924,0.0,0
72.96936,99.999924,0.0,0
73.069359,99.999924,792.712891,100
73.16436,99.999924,0.0,0
73.254608,99.999924,0.0,0
73.34034,99.999924,0.0,0
73.421791,99.999924,0.0,0
73.499168,99.999924,0.0,0
73.572678,99.999924,0.0,0
73.642509,99.999924,0.0,0
73.708847,99.999924,0.0,0
73.771873,99.999924,0.0,0
73.831749,99.999924,0.0,0
73.888626,99.999924,0.0,0
73.942657,99.999924,0.0,0
73.993988,99.999924,0.0,0
74.042755,99.999924,0.0,0
74.089081,99.999924,0.0,0
74.133095,99.999924,0.0,0
74.174904,99.999924,0.0,0
74.274902,99.999924,803.148926,100
74.369904,99.999924,0.0,0
74.460152,99.999924,0.0,0
74.545891,99.999924,0.0,0
74.627342,99.999924,0.0,0
74.70472,99.999924,0.0,0
74.778229,99.999924,0.0,0
74.848061,99.999924,0.0,0
74.914406,99.999924,0.0,0
74.977432,99.999924,0.0,0
75.037308,99.999924,0.0,0
75.094185,99.999924,0.0,0
75.148224,99.999924,0.0,0
75.199554,99.999924,0.0,0
75.248322,99.999924,0.0,0
75.294647,99.999924,0.0,0
75.338661,99.999924,0.0,0
75.38047,99.999924,0.0,0
75.420189,99.999924,0.0,0
75.457924,99.999924,0.0,0
75.493774,99.999924,0.0,0
75.593773,99.999924,709.052612,100
75.688774,99.999924,0.0,0
75.779022,99.999924,0.0,0
75.864754,99.999924,0.0,0
75.946205,99.999924,0.0,0
76.023582,99.999924,0.0,0
76.097092,99.999924,0.0,0
76.166924,99.999924,0.0,0
76.233261,99.999924,0.0,0
76.296288,99.999924,0.0,0
76.356163,99.999924,0.0,0
76.41304,99.999924,0.0,0
76.467072,99.999924,0.0,0
76.518402,99.999924,0.0,0
76.567169,99.999924,0.0,0
76.613495,99.999924,0.0,0
76.657509,99.999924,0.0,0
76.757507,99.999924,741.286255,100
76.852509,99.999924,0.0,0
76.942757,99.999924,0.0,0
77.028496,99.999924,0.0,0
77.109947,99.999924,0.0,0
77.187325,99.999924,0.0,0
77.260834,99.999924,0.0,0
77.330666,99.999924,0.0,0
77.397011,99.999924,0.0,0
77.460037,99.999924,0.0,0
77.519913,99.999924,0.0,0
77.57679,99.999924,0.0,0
77.630829,99.999924,0.0,0
77.682159,99.999924,0.0,0
77.730927,99.999924,0.0,0
77.777252,99.999924,0.0,0
77.821266,99.999924,0.0,0
77.863075,99.999924,0.0,0
77.933289,99.999924,746.440308,100
77.999992,99.999924,0.0,0
78.063362,99.999924,0.0,0
78.123566,99.999924,0.0,0
78.180756,99.999924,0.0,0
78.235085,99.999924,0.0,0
78.286697,99.999924,0.0,0
78.335732,99.999924,0.0,0
78.382317,99.999924,0.0,0
78.426575,99.999924,0.0,0
78.468613,99.999924,0.0,0
78.508553,99.999924,0.0,0
78.546494,99.999924,0.0,0
78.582542,99.999924,0.0,0
78.616783,99.999924,0.0,0
78.649315,99.999924,0.0,0
78.680222,99.999924,0.0,0
78.709579,99.999924,0.0,0
78.737473,99.999924,0.0,0
78.819717,99.999924,738.331848,100
78.89785,99.999924,0.0,0
78.972076,99.999924,0.0,0
79.042587,99.999924,0.0,0
79.109573,99.999924,0.0,0
79.17321,99.999924,0.0,0
79.233665,99.999924,0.0,0
79.2911,99.999924,0.0,0
79.345665,99.999924,0.0,0
79.397499,99.999924,0.0,0
79.446739,99.999924,0.0,0
79.493523,99.999924,0.0,0
79.537964,99.999924,0.0,0
79.580185,99.999924,0.0,0
79.620293,99.999924,0.0,0
79.658394,99.999924,0.0,0
79.694595,99.999924,0.0,0
79.794594,99.999924,689.962646,100
79.889595,99.999924,0.0,0
79.979843,99.999924,0.0,0
80.065582,99.999924,0.0,0
80.147034,99.999924,0.0,0
80.224411,99.999924,0.0,0
80.29792,99.999924,0.0,0
80.367752,99.999924,0.0,0
80.434097,99.999924,0.0,0
80.497124,99.999924,0.0,0
80.556999,99.999924,0.0,0
80.613884,99.999924,0.0,0
80.667923,99.999924,0.0,0
80.719261,99.999924,0.0,0
80.768028,99.999924,0.0,0
80.814362,99.999924,0.0,0
80.858376,99.999924,0.0,0
80.900185,99.999924,678.898193,100
80.939903,99.999924,0.0,0
80.977638,99.999924,0.0,0
81.013489,99.999924,0.0,0
81.047546,99.999924,0.0,0
81.079903,99.999924,0.0,0
81.110641,99.999924,0.0,0
81.139839,99.999924,0.0,0
81.16758,99.999924,0.0,0
81.193932,99.999924,0.0,0
81.218964,99.999924,0.0,0
81.242744,99.999924,0.0,0
81.265335,99.999924,0.0,0
81.286797,99.999924,0.0,0
81.30719,99.999924,0.0,0
81.326561,99.999924,0.0,0
81.344963,99.999924,656.441711,100
81.36245,99.999924,0.0,0
81.379059,99.999924,0.0,0
81.394836,99.999924,0.0,0
81.409828,99.999924,0.0,0
81.424065,99.999924,0.0,0
81.437592,99.999924,0.0,0
81.450439,99.999924,0.0,0
81.462646,99.999924,0.0,0
81.474243,99.999924,0.0,0
81.48526,99.999924,0.0,0
81.495728,99.999924,0.0,0
81.505669,99.999924,0.0,0
81.515114,99.999924,0.0,0
81.524086,99.999924,0.0,0
81.532616,99.999924,0.0,0
81.540718,99.999924,0.0,0
81.548416,99.999924,654.94342,100
81.555725,99.999924,0.0,0
81.562668,99.999924,0.0,0
81.569267,99.999924,0.0,0
81.575539,99.999924,0.0,0
81.58149,99.999924,0.0,0
81.587143,99.999924,0.0,0
81.592514,99.999924,0.0,0
81.597618,99.999924,0.0,0
81.60247,99.999924,0.0,0
81.607079,99.999924,0.0,0
81.611458,99.999924,0.0,0
81.615616,99.999924,0.0,0
81.619568,99.999924,0.0,0
81.623322,99.999924,0.0,0
81.626884,99.999924,0.0,0
81.630272,99.999924,0.0,0
81.633492,99.999924,667.548096,100
81.636551,99.999924,0.0,0
81.639458,99.999924,0.0,0
81.64222,99.999924,0.0,0
81.644836,99.999924,0.0,0
81.647324,99.999924,0.0,0
81.649689,99.999924,0.0,0
81.651932,99.999924,0.0,0
81.654068,99.999924,0.0,0
81.656097,99.999924,0.0,0
81.65802,99.999924,0.0,0
81.659851,99.999924,0.0,0
81.661591,99.999924,0.0,0
81.663239,99.999924,0.0,0
81.663239,99.999924,652.144958,25
81.663239,99.999924,0.0,0
81.663239,99.999924,0.0,0
81.663239,99.999924,0.0,0
81.663239,99.999924,0.0,0
81.663239,99.999924,0.0,0
81.663239,99.999924,0.0,0
81.663239,99.999924,0.0,0
81.663239,99.999924,0.0,0
81.663239,99.999924,0.0,0
81.663239,99.999924,0.0,0
81.663239,99.999924,0.0,0
81.663239,99.999924,0.0,0
81.663239,99.999924,0.0,0
81.663239,99.999924,0.0,0
81.663239,99.999924,0.0,0
81.663239,99.999924,0.0,0
81.663239,99.999924,0.0,0
81.663239,99.999924,0.0,0
81.663239,99.999924,0.0,0
81.663239,99.999924,0.0,0
81.663239,99.999924,713.878113,50
81.663239,99.999924,0.0,0
81.663239,99.999924,0.0,0
81.663239,99.999924,0.0,0
81.663239,99.999924,0.0,0
81.663239,99.999924,0.0,0
81.663239,99.999924,0.0,0
81.663239,99.999924,0.0,0
81.663239,99.999924,0.0,0
81.663239,99.999924,0.0,0
81.663239,99.999924,0.0,0
81.663239,99.999924,0.0,0
81.663239,99.999924,0.0,0
81.663239,99.999924,0.0,0
81.663239,99.999924,0.0,0
81.663239,99.999924,0.0,0
81.663239,99.999924,0.0,0
81.763237,99.999924,737.89624,100
81.858231,99.999924,0.0,0
81.948479,99.999924,0.0,0
82.03421,99.999924,0.0,0
82.115654,99.999924,0.0,0
82.193031,99.999924,0.0,0
82.266541,99.999924,0.0,0
82.336372,99.999924,0.0,0
82.40271,99.999924,0.0,0
82.465729,99.999924,0.0,0
82.525597,99.999924,0.0,0
82.582474,99.999924,0.0,0
82.636505,99.999924,0.0,0
82.687836,99.999924,0.0,0
82.736603,99.999924,0.0,0
82.782928,99.999924,0.0,0
82.826942,99.999924,0.0,0
82.868752,99.999924,0.0,0
82.90847,99.999924,0.0,0
83.008469,99.999924,627.269348,100
83.10347,99.999924,0.0,0
83.193718,99.999924,0.0,0
83.279457,99.999924,0.0,0
83.360909,99.999924,0.0,0
83.438286,99.999924,0.0,0
83.511795,99.999924,0.0,0
83.581627,99.999924,0.0,0
83.647964,99.999924,0.0,0
83.710991,99.999924,0.0,0
83.770866,99.999924,0.0,0
83.827744,99.999924,0.0,0
83.881775,99.999924,0.0,0
83.881775,99.999924,733.591187,25
83.881775,99.999924,0.0,0
83.881775,99.999924,0.0,0
83.881775,99.999924,0.0,0
83.881775,99.999924,0.0,0
83.881775,99.999924,0.0,0
83.881775,99.999924,0.0,0
83.881775,99.999924,0.0,0
83.881775,99.999924,0.0,0
83.881775,99.999924,0.0,0
83.881775,99.999924,0.0,0
83.881775,99.999924,0.0,0
83.881775,99.999924,0.0,0
83.881775,99.999924,0.0,0
83.881775,99.999924,0.0,0
83.881775,99.999924,0.0,0
83.881775,99.999924,0.0,0
83.881775,99.999924,0.0,0
83.881775,99.999924,0.0,0
83.881775,99.999924,0.0,0
83.881775,99.999924,0.0,0
83.881775,99.999924,0.0,0
83.881775,99.999924,0.0,0
83.881775,99.999924,0.0,0
83.881775,99.999924,0.0,0
83.881775,99.999924,1043.183472,25
83.881775,99.999924,0.0,0
83.881775,99.999924,0.0,0
83.881775,99.999924,0.0,0
83.881775,99.999924,0.0,0
83.881775,99.999924,0.0,0
83.881775,99.999924,0.0,0
83.881775,99.999924,0.0,0
83.881775,99.999924,0.0,0
83.881775,99.999924,0.0,0
83.881775,99.999924,0.0,0
83.881775,99.999924,0.0,0
83.881775,99.999924,0.0,0
83.881775,99.999924,0.0,0
83.881775,99.999924,0.0,0
83.881775,99.999924,374.709076,25
83.881775,99.999924,0.0,0
83.881775,99.999924,0.0,0
83.881775,99.999924,0.0,0
83.881775,99.999924,0.0,0
83.881775,99.999924,0.0,0
83.881775,99.999924,0.0,0
83.881775,99.999924,0.0,0
83.881775,99.999924,0.0,0
83.881775,99.999924,0.0,0
83.881775,99.999924,0.0,0
83.881775,99.999924,0.0,0
83.881775,99.999924,631.748596,25
83.881775,99.999924,0.0,0
83.881775,99.999924,0.0,0
83.881775,99.999924,0.0,0
83.881775,99.999924,0.0,0
83.881775,99.999924,0.0,0
83.881775,99.999924,0.0,0
83.881775,99.999924,0.0,0
83.881775,99.999924,0.0,0
83.881775,99.999924,0.0,0
83.881775,99.999924,0.0,0
83.881775,99.999924,0.0,0
83.881775,99.999924,0.0,0
83.881775,99.999924,0.0,0
83.881775,99.999924,0.0,0
83.881775,99.999924,560.939697,50
83.881775,99.999924,0.0,0
83.881775,99.999924,0.0,0
83.881775,99.999924,0.0,0
83.881775,99.999924,0.0,0
83.881775,99.999924,0.0,0
83.881775,99.999924,0.0,0
83.881775,99.999924,0.0,0
83.881775,99.999924,0.0,0
83.881775,99.999924,0.0,0
83.881775,99.999924,0.0,0
83.881775,99.999924,0.0,0
83.881775,99.999924,0.0,0
83.881775,99.999924,0.0,0
83.881775,99.999924,0.0,0
83.881775,99.999924,0.0,0
83.881775,99.999924,0.0,0
83.881775,99.999924,0.0,0
83.881775,99.999924,0.0,0
83.881775,99.999924,0.0,0
83.881775,99.999924,0.0,0
83.881775,99.999924,0.0,0
83.881775,99.999924,0.0,0
83.881775,99.999924,0.0,0
83.881775,99.999924,0.0,0
83.881775,99.999924,0.0,0
83.881775,99.999924,0.0,0
83.881775,99.999924,0.0,0
83.881775,99.999924,0.0,0
83.881775,99.999924,0.0,0
83.881775,99.999924,0.0,0
83.881775,99.999924,0.0,0
83.881775,99.999924,0.0,0
83.881775,99.999924,0.0,0
83.881775,99.999924,0.0,0
83.881775,99.999924,0.0,0
83.881775,99.999924,0.0,0
83.881775,99.999924,0.0,0
83.881775,99.999924,0.0,0
83.881775,99.999924,1240.599121,25
83.881775,99.999924,0.0,0
83.881775,99.999924,0.0,0
83.881775,99.999924,0.0,0
83.881775,99.999924,0.0,0
83.881775,99.999924,0.0,0
83.881775,99.999924,0.0,0
83.881775,99.999924,0.0,0
83.881775,99.999924,0.0,0
83.881775,99.999924,0.0,0
83.881775,99.999924,0.0,0
83.881775,99.999924,0.0,0
83.881775,99.999924,701.169067,25
83.881775,99.999924,0.0,0
83.881775,99.999924,0.0,0
83.881775,99.999924,0.0,0
83.881775,99.999924,0.0,0
83.881775,99.999924,0.0,0
83.881775,99.999924,0.0,0
83.881775,99.999924,0.0,0
83.881775,99.999924,0.0,0
83.881775,99.999924,0.0,0
83.881775,99.999924,0.0,0
83.881775,99.999924,0.0,0
83.881775,99.999924,544.637085,25
83.881775,99.999924,0.0,0
83.881775,99.999924,0.0,0
83.881775,99.999924,0.0,0
83.881775,99.999924,0.0,0
83.881775,99.999924,0.0,0
83.881775,99.999924,0.0,0
83.881775,99.999924,0.0,0
83.881775,99.999924,0.0,0
83.881775,99.999924,0.0,0
83.881775,99.999924,0.0,0
83.881775,99.999924,0.0,0
83.881775,99.999924,0.0,0
83.881775,99.999924,0.0,0
83.881775,99.999924,0.0,0
83.881775,99.999924,0.0,0
83.881775,99.999924,0.0,0
83.881775,99.999924,0.0,0
83.881775,99.999924,0.0,0
83.881775,99.999924,0.0,0
83.881775,99.999924,0.0,0
83.881775,99.999924,0.0,0
83.881775,99.999924,0.0,0
83.881775,99.999924,0.0,0
83.881775,99.999924,0.0,0
83.881775,99.999924,0.0,0
83.881775,99.999924,0.0,0
83.881775,99.999924,0.0,0
83.881775,99.999924,0.0,0
83.881775,99.999924,0.0,0
83.881775,99.999924,0.0,0
83.881775,99.999924,0.0,0
83.881775,99.999924,0.0,0
83.881775,99.999924,0.0,0
83.881775,99.999924,0.0,0
83.881775,99.999924,0.0,0
83.881775,99.999924,0.0,0
83.881775,99.999924,0.0,0
83.881775,99.999924,0.0,0
83.881775,99.999924,0.0,0
83.881775,99.999924,0.0,0
83.881775,99.999924,0.0,0
83.881775,99.999924,0.0,0
83.881775,99.999924,0.0,0
83.881775,99.999924,0.0,0
83.881775,99.999924,0.0,0
83.881775,99.999924,0.0,0
83.881775,99.999924,0.0,0
83.881775,99.999924,0.0,0
83.881775,99.999924,0.0,0
83.881775,99.999924,0.0,0
83.881775,99.999924,1822.559937,25
83.881775,99.999924,0.0,0
83.881775,99.999924,0.0,0
83.881775,99.999924,0.0,0
83.881775,99.999924,0.0,0
83.881775,99.999924,0.0,0
83.881775,99.999924,0.0,0
83.881775,99.999924,0.0,0
83.881775,99.999924,0.0,0
83.881775,99.999924,0.0,0
83.881775,99.999924,0.0,0
83.881775,99.999924,0.0,0
83.881775,99.999924,0.0,0
83.881775,99.999924,0.0,0
83.881775,99.999924,0.0,0
83.881775,99.999924,0.0,0
83.881775,99.999924,0.0,0
83.881775,99.999924,0.0,0
83.881775,99.999924,0.0,0
83.881775,99.999924,947.089844,25
83.881775,99.999924,0.0,0
83.881775,99.999924,0.0,0
83.881775,99.999924,0.0,0
83.881775,99.999924,0.0,0
83.881775,99.999924,0.0,0
83.881775,99.999924,0.0,0
83.881775,99.999924,0.0,0
83.881775,99.999924,0.0,0
83.881775,99.999924,0.0,0
83.881775,99.999924,0.0,0
83.881775,99.999924,0.0,0
83.881775,99.999924,0.0,0
83.881775,99.999924,0.0,0
83.881775,99.999924,0.0,0
83.881775,99.999924,0.0,0
83.881775,99.999924,0.0,0
83.881775,99.999924,0.0,0
83.881775,99.999924,0.0,0
83.881775,99.999924,0.0,0
83.881775,99.999924,0.0,0
83.881775,99.999924,0.0,0
83.881775,99.999924,0.0,0
83.881775,99.999924,0.0,0
83.881775,99.999924,0.0,0
83.881775,99.999924,0.0,0
83.881775,99.999924,0.0,0
83.881775,99.999924,0.0,0
83.881775,99.999924,0.0,0
83.881775,99.999924,1207.90271,50
83.881775,99.999924,0.0,0
83.881775,99.999924,0.0,0
83.881775,99.999924,0.0,0
83.881775,99.999924,0.0,0
83.881775,99.999924,0.0,0
83.881775,99.999924,0.0,0
83.881775,99.999924,0.0,0
83.881775,99.999924,0.0,0
83.881775,99.999924,0.0,0
83.881775,99.999924,0.0,0
83.881775,99.999924,0.0,0
83.881775,99.999924,0.0,0
83.881775,99.999924,0.0,0
83.881775,99.999924,0.0,0
83.881775,99.999924,0.0,0
83.881775,99.999924,0.0,0
83.881775,99.999924,0.0,0
83.881775,99.999924,0.0,0
83.881775,99.999924,0.0,0
83.881775,99.999924,0.0,0
83.881775,99.999924,0.0,0
83.881775,99.999924,0.0,0
83.881775,99.999924,0.0,0
83.881775,99.999924,0.0,0
83.681778,99.999924,988.68335,100
83.591774,99.999924,0.0,0
83.506271,99.999924,0.0,0
83.425041,99.999924,0.0,0
83.347878,99.999924,0.0,0
83.274567,99.999924,0.0,0
83.204926,99.999924,0.0,0
83.138763,99.999924,0.0,0
83.075912,99.999924,0.0,0
83.016205,99.999924,0.0,0
82.95948,99.999924,0.0,0
82.905594,99.999924,0.0,0
82.854401,99.999924,0.0,0
82.805763,99.999924,0.0,0
82.75956,99.999924,0.0,0
82.715668,99.999924,0.0,0
82.673965,99.999924,0.0,0
82.634354,99.999924,0.0,0
82.596718,99.999924,0.0,0
82.560966,99.999924,0.0,0
82.527,99.999924,0.0,0
82.494736,99.999924,0.0,0
82.094734,99.999924,924.620972,100
82.014732,99.999924,0.0,0
81.938728,99.999924,0.0,0
81.866524,99.999924,0.0,0
81.797928,99.999924,0.0,0
81.732765,99.999924,0.0,0
81.67086,99.999924,0.0,0
81.612053,99.999924,0.0,0
81.556183,99.999924,0.0,0
81.503105,99.999924,0.0,0
81.452682,99.999924,0.0,0
81.452682,99.999924,392.016388,25
81.452682,99.999924,0.0,0
81.452682,99.999924,0.0,0
81.452682,99.999924,0.0,0
81.452682,99.999924,0.0,0
81.452682,99.999924,0.0,0
81.452682,99.999924,0.0,0
81.452682,99.999924,0.0,0
81.452682,99.999924,0.0,0
81.452682,99.999924,0.0,0
81.452682,99.999924,0.0,0
81.452682,99.999924,0.0,0
81.452682,99.999924,0.0,0
81.452682,99.999924,0.0,0
81.452682,99.999924,0.0,0
81.452682,99.999924,0.0,0
81.452682,99.999924,0.0,0
81.452682,99.999924,0.0,0
81.452682,99.999924,0.0,0
81.452682,99.999924,840.016113,25
81.452682,99.999924,0.0,0
81.452682,99.999924,0.0,0
81.452682,99.999924,0.0,0
81.452682,99.999924,0.0,0
81.452682,99.999924,0.0,0
81.452682,99.999924,0.0,0
81.452682,99.999924,0.0,0
81.452682,99.999924,0.0,0
81.452682,99.999924,0.0,0
81.452682,99.999924,0.0,0
81.452682,99.999924,0.0,0
81.452682,99.999924,0.0,0
81.452682,99.999924,0.0,0
81.452682,99.999924,0.0,0
81.452682,99.999924,0.0,0
81.452682,99.999924,0.0,0
81.452682,99.999924,0.0,0
81.452682,99.999924,641.5755,25
81.452682,99.999924,0.0,0
81.452682,99.999924,0.0,0
81.452682,99.999924,0.0,0
81.452682,99.999924,0.0,0
81.452682,99.999924,0.0,0
81.452682,99.999924,0.0,0
81.452682,99.999924,0.0,0
81.452682,99.999924,0.0,0
81.452682,99.999924,0.0,0
81.452682,99.999924,0.0,0
81.452682,99.999924,0.0,0
81.452682,99.999924,0.0,0
81.452682,99.999924,0.0,0
81.452682,99.999924,485.608551,25
81.452682,99.999924,0.0,0
81.452682,99.999924,0.0,0
81.452682,99.999924,0.0,0
81.452682,99.999924,0.0,0
81.452682,99.999924,0.0,0
81.452682,99.999924,0.0,0
81.452682,99.999924,0.0,0
81.452682,99.999924,0.0,0
81.452682,99.999924,0.0,0
81.452682,99.999924,0.0,0
81.452682,99.999924,0.0,0
81.452682,99.999924,0.0,0
81.452682,99.999924,0.0,0
81.452682,99.999924,0.0,0
81.452682,99.999924,0.0,0
81.452682,99.999924,0.0,0
81.452682,99.999924,0.0,0
81.452682,99.999924,792.794312,25
81.452682,99.999924,0.0,0
81.452682,99.999924,0.0,0
81.452682,99.999924,0.0,0
81.452682,99.999924,0.0,0
81.452682,99.999924,0.0,0
81.452682,99.999924,0.0,0
81.452682,99.999924,0.0,0
81.452682,99.999924,0.0,0
81.452682,99.999924,0.0,0
81.452682,99.999924,0.0,0
81.452682,99.999924,0.0,0
81.452682,99.999924,0.0,0
81.452682,99.999924,0.0,0
81.452682,99.999924,0.0,0
81.452682,99.999924,0.0,0
81.452682,99.999924,624.240601,25
81.452682,99.999924,0.0,0
81.452682,99.999924,0.0,0
81.452682,99.999924,0.0,0
81.452682,99.999924,0.0,0
81.452682,99.999924,0.0,0
81.452682,99.999924,0.0,0
81.452682,99.999924,0.0,0
81.452682,99.999924,0.0,0
81.452682,99.999924,0.0,0
81.452682,99.999924,0.0,0
81.452682,99.999924,0.0,0
81.452682,99.999924,0.0,0
81.452682,99.999924,0.0,0
81.452682,99.999924,0.0,0
81.452682,99.999924,0.0,0
81.452682,99.999924,0.0,0
81.452682,99.999924,0.0,0
81.452682,99.999924,0.0,0
81.452682,99.999924,0.0,0
81.452682,99.999924,0.0,0
81.452682,99.999924,0.0,0
81.452682,99.999924,0.0,0
81.452682,99.999924,0.0,0
81.452682,99.999924,0.0,0
81.452682,99.999924,0.0,0
81.452682,99.999924,0.0,0
81.452682,99.999924,0.0,0
81.452682,99.999924,0.0,0
81.452682,99.999924,0.0,0
81.452682,99.999924,0.0,0
81.452682,99.999924,0.0,0
81.452682,99.999924,0.0,0
81.452682,99.999924,0.0,0
81.452682,99.999924,0.0,0
81.452682,99.999924,0.0,0
81.452682,99.999924,0.0,0
81.452682,99.999924,0.0,0
81.452682,99.999924,0.0,0
81.452682,99.999924,0.0,0
81.452682,99.999924,0.0,0
81.452682,99.999924,0.0,0
81.452682,99.999924,0.0,0
81.452682,99.999924,0.0,0
81.452682,99.999924,0.0,0
81.452682,99.999924,0.0,0
81.452682,99.999924,0.0,0
81.452682,99.999924,0.0,0
81.452682,99.999924,0.0,0
81.452682,99.999924,0.0,0
81.452682,99.999924,0.0,0
81.452682,99.999924,1986.094116,25
81.452682,99.999924,0.0,0
81.452682,99.999924,0.0,0
81.452682,99.999924,0.0,0
81.452682,99.999924,0.0,0
81.452682,99.999924,0.0,0
81.452682,99.999924,0.0,0
81.452682,99.999924,0.0,0
81.452682,99.999924,0.0,0
81.452682,99.999924,0.0,0
81.452682,99.999924,0.0,0
81.452682,99.999924,0.0,0
81.452682,99.999924,665.630005,25
81.452682,99.999924,0.0,0
81.452682,99.999924,0.0,0
81.452682,99.999924,0.0,0
81.452682,99.999924,0.0,0
81.452682,99.999924,0.0,0
81.452682,99.999924,0.0,0
81.452682,99.999924,0.0,0
81.452682,99.999924,0.0,0
81.452682,99.999924,0.0,0
81.452682,99.999924,0.0,0
81.452682,99.999924,0.0,0
81.452682,99.999924,0.0,0
81.452682,99.999924,0.0,0
81.452682,99.999924,0.0,0
81.452682,99.999924,0.0,0
81.452682,99.999924,0.0,0
81.452682,99.999924,0.0,0
81.452682,99.999924,0.0,0
81.452682,99.999924,0.0,0
81.452682,99.999924,0.0,0
81.452682,99.999924,0.0,0
81.452682,99.999924,656.531555,50
81.452682,99.999924,0.0,0
81.452682,99.999924,0.0,0
81.452682,99.999924,0.0,0
81.452682,99.999924,0.0,0
81.452682,99.999924,0.0,0
81.452682,99.999924,0.0,0
81.452682,99.999924,0.0,0
81.452682,99.999924,0.0,0
81.452682,99.999924,0.0,0
81.452682,99.999924,0.0,0
81.452682,99.999924,0.0,0
81.452682,99.999924,0.0,0
81.452682,99.999924,0.0,0
81.452682,99.999924,0.0,0
81.452682,99.999924,0.0,0
81.452682,99.999924,0.0,0
81.452682,99.999924,0.0,0
81.452682,99.999924,0.0,0
81.452682,99.999924,0.0,0
81.452682,99.999924,0.0,0
81.452682,99.999924,0.0,0
81.452682,99.999924,0.0,0
81.452682,99.999924,0.0,0
81.452682,99.999924,0.0,0
81.452682,99.999924,0.0,0
81.452682,99.999924,0.0,0
81.452682,99.999924,0.0,0
81.452682,99.999924,0.0,0
81.452682,99.999924,0.0,0
81.452682,99.999924,0.0,0
81.452682,99.999924,0.0,0
81.452682,99.999924,0.0,0
81.452682,99.999924,0.0,0
81.452682,99.999924,0.0,0
81.452682,99.999924,0.0,0
81.452682,99.999924,0.0,0
81.452682,99.999924,0.0,0
81.452682,99.999924,0.0,0
81.452682,99.999924,0.0,0
81.452682,99.999924,0.0,0
81.452682,99.999924,0.0,0
81.452682,99.999924,0.0,0
81.452682,99.999924,0.0,0
81.452682,99.999924,0.0,0
81.452682,99.999924,0.0,0
81.452682,99.999924,0.0,0
81.452682,99.999924,0.0,0
81.452682,99.999924,0.0,0
81.452682,99.999924,0.0,0
81.452682,99.999924,1514.859619,25
81.452682,99.999924,0.0,0
81.452682,99.999924,0.0,0
81.452682,99.999924,0.0,0
81.452682,99.999924,0.0,0
81.452682,99.999924,0.0,0
81.452682,99.999924,0.0,0
81.452682,99.999924,0.0,0
81.452682,99.999924,0.0,0
81.452682,99.999924,0.0,0
81.452682,99.999924,0.0,0
81.452682,99.999924,0.0,0
81.452682,99.999924,0.0,0
81.452682,99.999924,0.0,0
81.452682,99.999924,0.0,0
81.452682,99.999924,0.0,0
81.452682,99.999924,1301.418701,25
81.452682,99.999924,0.0,0
81.452682,99.999924,0.0,0
81.452682,99.999924,0.0,0
81.452682,99.999924,0.0,0
81.452682,99.999924,0.0,0
81.452682,99.999924,0.0,0
81.452682,99.999924,0.0,0
81.452682,99.999924,0.0,0
81.452682,99.999924,0.0,0
81.452682,99.999924,0.0,0
81.452682,99.999924,0.0,0
81.452682,99.999924,0.0,0
81.452682,99.999924,0.0,0
81.452682,99.999924,0.0,0
81.452682,99.999924,0.0,0
81.452682,99.999924,0.0,0
81.452682,99.999924,0.0,0
81.452682,99.999924,0.0,0
81.452682,99.999924,0.0,0
81.452682,99.999924,0.0,0
81.452682,99.999924,0.0,0
81.452682,99.999924,0.0,0
81.452682,99.999924,0.0,0
81.452682,99.999924,0.0,0
81.452682,99.999924,0.0,0
81.452682,99.999924,0.0,0
81.452682,99.999924,0.0,0
81.452682,99.999924,0.0,0
81.452682,99.999924,0.0,0
81.452682,99.999924,0.0,0
81.452682,99.999924,0.0,0
81.452682,99.999924,0.0,0
81.452682,99.999924,0.0,0
81.452682,99.999924,0.0,0
81.452682,99.999924,0.0,0
81.452682,99.999924,1237.811035,50
81.452682,99.999924,0.0,0
81.452682,99.999924,0.0,0
81.452682,99.999924,0.0,0
81.452682,99.999924,0.0,0
81.452682,99.999924,0.0,0
81.452682,99.999924,0.0,0
81.452682,99.999924,0.0,0
81.452682,99.999924,0.0,0
81.452682,99.999924,0.0,0
81.452682,99.999924,0.0,0
81.452682,99.999924,0.0,0
81.452682,99.999924,0.0,0
81.452682,99.999924,0.0,0
81.452682,99.999924,0.0,0
81.452682,99.999924,758.042419,25
81.452682,99.999924,0.0,0
81.452682,99.999924,0.0,0
81.452682,99.999924,0.0,0
81.452682,99.999924,0.0,0
81.452682,99.999924,0.0,0
81.452682,99.999924,0.0,0
81.452682,99.999924,0.0,0
81.452682,99.999924,0.0,0
81.452682,99.999924,0.0,0
81.452682,99.999924,0.0,0
81.452682,99.999924,0.0,0
81.452682,99.999924,0.0,0
81.452682,99.999924,0.0,0
81.452682,99.999924,0.0,0
81.452682,99.999924,0.0,0
81.452682,99.999924,0.0,0
81.452682,99.999924,0.0,0
81.452682,99.999924,0.0,0
81.452682,99.999924,710.160583,50
81.452682,99.999924,0.0,0
81.452682,99.999924,0.0,0
81.452682,99.999924,0.0,0
81.452682,99.999924,0.0,0
81.452682,99.999924,0.0,0
81.452682,99.999924,0.0,0
81.452682,99.999924,0.0,0
81.452682,99.999924,0.0,0
81.452682,99.999924,0.0,0
81.452682,99.999924,0.0,0
81.452682,99.999924,0.0,0
81.452682,99.999924,0.0,0
81.452682,99.999924,0.0,0
81.452682,99.999924,0.0,0
81.452682,99.999924,0.0,0
81.452682,99.999924,0.0,0
81.452682,99.999924,0.0,0
81.452682,99.999924,0.0,0
81.452682,99.999924,0.0,0
81.452682,99.999924,0.0,0
81.452682,99.999924,0.0,0
81.452682,99.999924,0.0,0
81.452682,99.999924,0.0,0
81.452682,99.999924,0.0,0
81.452682,99.999924,0.0,0
81.452682,99.999924,0.0,0
81.452682,99.999924,0.0,0
81.452682,99.999924,0.0,0
81.452682,99.999924,0.0,0
81.452682,99.999924,0.0,0
81.452682,99.999924,0.0,0
81.452682,99.999924,0.0,0
81.452682,99.999924,0.0,0
81.452682,99.999924,0.0,0
81.452682,99.999924,0.0,0
81.452682,99.999924,0.0,0
81.452682,99.999924,1382.49707,25
81.452682,99.999924,0.0,0
81.452682,99.999924,0.0,0
81.452682,99.999924,0.0,0
81.452682,99.999924,0.0,0
81.452682,99.999924,0.0,0
81.452682,99.999924,0.0,0
81.452682,99.999924,0.0,0
81.452682,99.999924,0.0,0
81.452682,99.999924,0.0,0
81.452682,99.999924,0.0,0
81.452682,99.999924,0.0,0
81.452682,99.999924,0.0,0
81.452682,99.999924,0.0,0
81.452682,99.999924,656.638062,25
81.452682,99.999924,0.0,0
81.452682,99.999924,0.0,0
81.452682,99.999924,0.0,0
81.452682,99.999924,0.0,0
81.452682,99.999924,0.0,0
81.452682,99.999924,0.0,0
81.452682,99.999924,0.0,0
81.452682,99.999924,0.0,0
81.452682,99.999924,0.0,0
81.452682,99.999924,0.0,0
81.452682,99.999924,0.0,0
81.452682,99.999924,0.0,0
81.452682,99.999924,0.0,0
81.452682,99.999924,0.0,0
81.452682,99.999924,0.0,0
81.452682,99.999924,660.311279,50
81.452682,99.999924,0.0,0
81.452682,99.999924,0.0,0
81.452682,99.999924,0.0,0
81.452682,99.999924,0.0,0
81.452682,99.999924,0.0,0
81.452682,99.999924,0.0,0
81.452682,99.999924,0.0,0
81.452682,99.999924,0.0,0
81.452682,99.999924,0.0,0
81.452682,99.999924,0.0,0
81.452682,99.999924,0.0,0
81.452682,99.999924,0.0,0
81.452682,99.999924,650.549438,25
81.452682,99.999924,0.0,0
81.452682,99.999924,0.0,0
81.452682,99.999924,0.0,0
81.452682,99.999924,0.0,0
81.452682,99.999924,0.0,0
81.452682,99.999924,0.0,0
81.452682,99.999924,0.0,0
81.452682,99.999924,0.0,0
81.452682,99.999924,0.0,0
81.452682,99.999924,0.0,0
81.452682,99.999924,0.0,0
81.452682,99.999924,0.0,0
81.452682,99.999924,0.0,0
81.452682,99.999924,0.0,0
81.452682,99.999924,0.0,0
81.452682,99.999924,0.0,0
81.452682,99.999924,0.0,0
81.452682,99.999924,0.0,0
81.452682,99.999924,0.0,0
81.452682,99.999924,0.0,0
81.452682,99.999924,0.0,0
81.452682,99.999924,0.0,0
81.452682,99.999924,0.0,0
81.452682,99.999924,0.0,0
81.452682,99.999924,0.0,0
81.452682,99.999924,0.0,0
81.452682,99.999924,0.0,0
81.452682,99.999924,0.0,0
81.452682,99.999924,0.0,0
81.452682,99.999924,0.0,0
81.452682,99.999924,0.0,0
81.452682,99.999924,0.0,0
81.452682,99.999924,0.0,0
81.452682,99.999924,0.0,0
81.452682,99.999924,0.0,0
81.452682,99.999924,0.0,0
81.452682,99.999924,0.0,0
81.452682,99.999924,1335.716675,25
81.452682,99.999924,0.0,0
81.452682,99.999924,0.0,0
81.452682,99.999924,0.0,0
81.452682,99.999924,0.0,0
81.452682,99.999924,0.0,0
81.452682,99.999924,0.0,0
81.452682,99.999924,0.0,0
81.452682,99.999924,0.0,0
81.452682,99.999924,0.0,0
81.452682,99.999924,0.0,0
81.452682,99.999924,0.0,0
81.452682,99.999924,0.0,0
81.452682,99.999924,0.0,0
81.452682,99.999924,0.0,0
81.452682,99.999924,717.05481,25
81.452682,99.999924,0.0,0
81.452682,99.999924,0.0,0
81.452682,99.999924,0.0,0
81.452682,99.999924,0.0,0
81.452682,99.999924,0.0,0
81.452682,99.999924,0.0,0
81.452682,99.999924,0.0,0
81.452682,99.999924,0.0,0
81.452682,99.999924,0.0,0
81.452682,99.999924,0.0,0
81.452682,99.999924,0.0,0
81.452682,99.999924,0.0,0
81.452682,99.999924,0.0,0
81.452682,99.999924,0.0,0
81.452682,99.999924,0.0,0
81.452682,99.999924,0.0,0
81.452682,99.999924,0.0,0
81.452682,99.999924,0.0,0
81.452682,99.999924,0.0,0
81.452682,99.999924,0.0,0
81.452682,99.999924,0.0,0
81.452682,99.999924,0.0,0
81.452682,99.999924,0.0,0
81.452682,99.999924,0.0,0
81.452682,99.999924,0.0,0
81.452682,99.999924,0.0,0
81.452682,99.999924,0.0,0
81.452682,99.999924,0.0,0
81.452682,99.999924,0.0,0
81.452682,99.999924,0.0,0
81.452682,99.999924,0.0,0
81.452682,99.999924,0.0,0
81.452682,99.999924,0.0,0
81.452682,99.999924,0.0,0
81.452682,99.999924,0.0,0
81.452682,99.999924,0.0,0
81.452682,99.999924,0.0,0
81.452682,99.999924,0.0,0
81.452682,99.999924,0.0,0
81.452682,99.999924,0.0,0
81.452682,99.999924,0.0,0
81.452682,99.999924,0.0,0
81.452682,99.999924,0.0,0
81.452682,99.999924,0.0,0
81.452682,99.999924,0.0,0
81.452682,99.999924,0.0,0
81.452682,99.999924,0.0,0
81.452682,99.999924,0.0,0
81.452682,99.999924,0.0,0
81.452682,99.999924,0.0,0
81.452682,99.999924,0.0,0
81.452682,99.999924,0.0,0
81.452682,99.999924,1386.120361,25
81.452682,99.999924,0.0,0
81.452682,99.999924,0.0,0
81.452682,99.999924,0.0,0
81.452682,99.999924,0.0,0
81.452682,99.999924,0.0,0
81.452682,99.999924,0.0,0
81.452682,99.999924,0.0,0
81.452682,99.999924,0.0,0
81.452682,99.999924,0.0,0
81.452682,99.999924,0.0,0
81.452682,99.999924,0.0,0
81.452682,99.999924,0.0,0
81.452682,99.999924,0.0,0
81.452682,99.999924,0.0,0
81.452682,99.999924,0.0,0
81.452682,99.999924,0.0,0
81.452682,99.999924,1375.534302,50
81.452682,99.999924,0.0,0
81.452682,99.999924,0.0,0
81.452682,99.999924,0.0,0
81.452682,99.999924,0.0,0
81.452682,99.999924,0.0,0
81.452682,99.999924,0.0,0
81.452682,99.999924,0.0,0
81.452682,99.999924,0.0,0
81.452682,99.999924,0.0,0
81.452682,99.999924,0.0,0
81.452682,99.999924,0.0,0
81.452682,99.999924,0.0,0
81.452682,99.999924,0.0,0
81.452682,99.999924,0.0,0
81.452682,99.999924,701.152039,25
81.452682,99.999924,0.0,0
81.452682,99.999924,0.0,0
81.452682,99.999924,0.0,0
81.452682,99.999924,0.0,0
81.452682,99.999924,0.0,0
81.452682,99.999924,0.0,0
81.452682,99.999924,0.0,0
81.452682,99.999924,0.0,0
81.452682,99.999924,0.0,0
81.452682,99.999924,0.0,0
81.452682,99.999924,0.0,0
81.452682,99.999924,0.0,0
81.452682,99.999924,0.0,0
81.452682,99.999924,0.0,0
81.452682,99.999924,0.0,0
81.452682,99.999924,0.0,0
81.452682,99.999924,0.0,0
81.452682,99.999924,0.0,0
81.452682,99.999924,0.0,0
81.452682,99.999924,0.0,0
81.452682,99.999924,0.0,0
81.452682,99.999924,0.0,0
81.452682,99.999924,0.0,0
81.452682,99.999924,0.0,0
81.452682,99.999924,760.587402,50
81.452682,99.999924,0.0,0
81.452682,99.999924,0.0,0
81.452682,99.999924,0.0,0
81.452682,99.999924,0.0,0
81.452682,99.999924,0.0,0
81.452682,99.999924,0.0,0
81.452682,99.999924,0.0,0
81.452682,99.999924,0.0,0
81.452682,99.999924,0.0,0
81.452682,99.999924,0.0,0
81.452682,99.999924,0.0,0
81.452682,99.999924,0.0,0
81.452682,99.999924,0.0,0
81.452682,99.999924,0.0,0
81.352684,99.999924,659.141052,100
81.257683,99.999924,0.0,0
81.167435,99.999924,0.0,0
81.081696,99.999924,0.0,0
81.000244,99.999924,0.0,0
80.922867,99.999924,0.0,0
80.849358,99.999924,0.0,0
80.779526,99.999924,0.0,0
80.713181,99.999924,0.0,0
80.650154,99.999924,0.0,0
80.590279,99.999924,0.0,0
80.533394,99.999924,0.0,0
80.479355,99.999924,0.0,0
80.428017,99.999924,0.0,0
80.37925,99.999924,0.0,0
80.332916,99.999924,0.0,0
80.288902,99.999924,0.0,0
80.247093,99.999924,0.0,0
80.147095,99.999924,742.989441,100
80.052094,99.999924,0.0,0
79.961838,99.999924,0.0,0
79.876099,99.999924,0.0,0
79.794647,99.999924,0.0,0
79.71727,99.999924,0.0,0
79.643761,99.999924,0.0,0
79.573929,99.999924,0.0,0
79.507584,99.999924,0.0,0
79.444557,99.999924,0.0,0
79.384682,99.999924,0.0,0
79.327797,99.999924,0.0,0
79.273758,99.999924,0.0,0
79.22242,99.999924,0.0,0
79.173653,99.999924,0.0,0
79.173653,99.999924,745.39209,25
79.173653,99.999924,0.0,0
79.173653,99.999924,0.0,0
79.173653,99.999924,0.0,0
79.173653,99.999924,0.0,0
79.173653,99.999924,0.0,0
79.173653,99.999924,0.0,0
79.173653,99.999924,0.0,0
79.173653,99.999924,0.0,0
79.173653,99.999924,0.0,0
79.173653,99.999924,0.0,0
79.173653,99.999924,0.0,0
79.173653,99.999924,0.0,0
79.173653,99.999924,0.0,0
79.173653,99.999924,0.0,0
79.173653,99.999924,0.0,0
79.173653,99.999924,0.0,0
79.173653,99.999924,0.0,0
79.173653,99.999924,0.0,0
79.173653,99.999924,0.0,0
79.173653,99.999924,0.0,0
79.173653,99.999924,0.0,0
79.173653,99.999924,749.183899,50
79.173653,99.999924,0.0,0
79.173653,99.999924,0.0,0
79.173653,99.999924,0.0,0
79.173653,99.999924,0.0,0
79.173653,99.999924,0.0,0
79.173653,99.999924,0.0,0
79.173653,99.999924,0.0,0
79.173653,99.999924,0.0,0
79.173653,99.999924,0.0,0
79.173653,99.999924,0.0,0
79.173653,99.999924,0.0,0
79.173653,99.999924,0.0,0
79.173653,99.999924,0.0,0
79.173653,99.999924,0.0,0
79.173653,99.999924,0.0,0
79.273651,99.999924,675.702332,100
79.368652,99.999924,0.0,0
79.4589,99.999924,0.0,0
79.54464,99.999924,0.0,0
79.626091,99.999924,0.0,0
79.703468,99.999924,0.0,0
79.776978,99.999924,0.0,0
79.846809,99.999924,0.0,0
79.913155,99.999924,0.0,0
79.976181,99.999924,0.0,0
80.036057,99.999924,0.0,0
80.092941,99.999924,0.0,0
80.14698,99.999924,0.0,0
80.198318,99.999924,0.0,0
80.247086,99.999924,0.0,0
80.293419,99.999924,0.0,0
80.337433,99.999924,0.0,0
80.379242,99.999924,0.0,0
80.418961,99.999924,0.0,0
80.456696,99.999924,0.0,0
80.556694,99.999924,746.534241,100
80.651695,99.999924,0.0,0
80.741943,99.999924,0.0,0
80.827675,99.999924,0.0,0
80.909126,99.999924,0.0,0
80.986504,99.999924,0.0,0
81.060013,99.999924,0.0,0
81.129845,99.999924,0.0,0
81.196182,99.999924,0.0,0
81.259209,99.999924,0.0,0
81.319084,99.999924,0.0,0
81.375961,99.999924,0.0,0
81.429993,99.999924,0.0,0
81.481323,99.999924,0.0,0
81.53009,99.999924,0.0,0
81.576416,99.999924,0.0,0
81.62043,99.999924,0.0,0
81.662239,99.999924,0.0,0
81.701958,99.999924,0.0,0
81.701958,99.999924,927.334412,25
81.701958,99.999924,0.0,0
81.701958,99.999924,0.0,0
81.701958,99.999924,0.0,0
81.701958,99.999924,0.0,0
81.701958,99.999924,0.0,0
81.701958,99.999924,0.0,0
81.701958,99.999924,0.0,0
81.701958,99.999924,0.0,0
81.701958,99.999924,0.0,0
81.701958,99.999924,0.0,0
81.701958,99.999924,0.0,0
81.701958,99.999924,0.0,0
81.701958,99.999924,0.0,0
81.701958,99.999924,0.0,0
81.701958,99.999924,468.610291,25
81.701958,99.999924,0.0,0
81.701958,99.999924,0.0,0
81.701958,99.999924,0.0,0
81.701958,99.999924,0.0,0
81.701958,99.999924,0.0,0
81.701958,99.999924,0.0,0
81.701958,99.999924,0.0,0
81.701958,99.999924,0.0,0
81.701958,99.999924,0.0,0
81.701958,99.999924,0.0,0
81.701958,99.999924,0.0,0
81.701958,99.999924,0.0,0
81.701958,99.999924,0.0,0
81.701958,99.999924,0.0,0
81.701958,99.999924,0.0,0
81.701958,99.999924,0.0,0
81.701958,99.999924,0.0,0
81.701958,99.999924,0.0,0
81.701958,99.999924,0.0,0
81.701958,99.999924,0.0,0
81.701958,99.999924,0.0,0
81.701958,99.999924,0.0,0
81.701958,99.999924,0.0,0
81.701958,99.999924,0.0,0
81.701958,99.999924,0.0,0
81.701958,99.999924,0.0,0
81.701958,99.999924,0.0,0
81.701958,99.999924,0.0,0
81.701958,99.999924,0.0,0
81.701958,99.999924,0.0,0
81.701958,99.999924,0.0,0
81.701958,99.999924,0.0,0
81.701958,99.999924,0.0,0
81.701958,99.999924,0.0,0
81.701958,99.999924,0.0,0
81.701958,99.999924,0.0,0
81.701958,99.999924,1121.59021,25
81.701958,99.999924,0.0,0
81.701958,99.999924,0.0,0
81.701958,99.999924,0.0,0
81.701958,99.999924,0.0,0
81.701958,99.999924,0.0,0
81.701958,99.999924,0.0,0
81.701958,99.999924,0.0,0
81.701958,99.999924,0.0,0
81.701958,99.999924,0.0,0
81.701958,99.999924,0.0,0
81.701958,99.999924,0.0,0
81.701958,99.999924,0.0,0
81.701958,99.999924,0.0,0
81.701958,99.999924,0.0,0
81.701958,99.999924,0.0,0
81.701958,99.999924,0.0,0
81.701958,99.999924,0.0,0
81.701958,99.999924,0.0,0
81.701958,99.999924,1200.717529,25
81.701958,99.999924,0.0,0
81.701958,99.999924,0.0,0
81.701958,99.999924,0.0,0
81.701958,99.999924,0.0,0
81.701958,99.999924,0.0,0
81.701958,99.999924,0.0,0
81.701958,99.999924,0.0,0
81.701958,99.999924,0.0,0
81.701958,99.999924,0.0,0
81.701958,99.999924,0.0,0
81.701958,99.999924,0.0,0
81.701958,99.999924,0.0,0
81.701958,99.999924,0.0,0
81.701958,99.999924,0.0,0
81.701958,99.999924,0.0,0
81.701958,99.999924,0.0,0
81.701958,99.999924,0.0,0
81.701958,99.999924,0.0,0
81.701958,99.999924,0.0,0
81.701958,99.999924,0.0,0
81.701958,99.999924,0.0,0
81.701958,99.999924,0.0,0
81.701958,99.999924,0.0,0
81.701958,99.999924,759.238892,25
81.701958,99.999924,0.0,0
81.701958,99.999924,0.0,0
81.701958,99.999924,0.0,0
81.701958,99.999924,0.0,0
81.701958,99.999924,0.0,0
81.701958,99.999924,0.0,0
81.701958,99.999924,0.0,0
81.701958,99.999924,0.0,0
81.701958,99.999924,0.0,0
81.701958,99.999924,0.0,0
81.701958,99.999924,0.0,0
81.701958,99.999924,0.0,0
81.701958,99.999924,0.0,0
81.701958,99.999924,0.0,0
81.701958,99.999924,687.101074,50
81.701958,99.999924,0.0,0
81.701958,99.999924,0.0,0
81.701958,99.999924,0.0,0
81.701958,99.999924,0.0,0
81.701958,99.999924,0.0,0
81.701958,99.999924,0.0,0
81.701958,99.999924,0.0,0
81.701958,99.999924,0.0,0
81.701958,99.999924,0.0,0
81.701958,99.999924,0.0,0
81.701958,99.999924,0.0,0
81.701958,99.999924,0.0,0
81.701958,99.999924,0.0,0
81.701958,99.999924,0.0,0
81.701958,99.999924,0.0,0
81.701958,99.999924,0.0,0
81.78688,99.999924,736.749329,100
81.867554,99.999924,0.0,0
81.944199,99.999924,0.0,0
82.017006,99.999924,0.0,0
82.086174,99.999924,0.0,0
82.151886,99.999924,0.0,0
82.21431,99.999924,0.0,0
82.273613,99.999924,0.0,0
82.329956,99.999924,0.0,0
82.383476,99.999924,0.0,0
82.434326,99.999924,0.0,0
82.482628,99.999924,0.0,0
82.528519,99.999924,0.0,0
82.572113,99.999924,0.0,0
82.613525,99.999924,0.0,0
82.65287,99.999924,0.0,0
82.690247,99.999924,0.0,0
82.725754,99.999924,0.0,0
82.759483,99.999924,0.0,0
82.791527,99.999924,0.0,0
82.821968,99.999924,0.0,0
82.850891,99.999924,0.0,0
82.878365,99.999924,0.0,0
82.904465,99.999924,0.0,0
82.92926,99.999924,0.0,0
82.95282,99.999924,0.0,0
82.975197,99.999924,0.0,0
82.99646,99.999924,0.0,0
83.016655,99.999924,0.0,0
83.035843,99.999924,0.0,0
83.05407,99.999924,0.0,0
83.071388,99.999924,0.0,0
83.087837,99.999924,0.0,0
83.103462,99.999924,0.0,0
83.118309,99.999924,0.0,0
83.132416,99.999924,0.0,0
83.145813,99.999924,0.0,0
83.158539,99.999924,0.0,0
83.170631,99.999924,0.0,0
83.170631,99.999924,1491.498779,25
83.170631,99.999924,0.0,0
83.170631,99.999924,0.0,0
83.170631,99.999924,0.0,0
83.170631,99.999924,0.0,0
83.170631,99.999924,0.0,0
83.170631,99.999924,0.0,0
83.170631,99.999924,0.0,0
83.170631,99.999924,0.0,0
83.170631,99.999924,0.0,0
83.170631,99.999924,0.0,0
83.170631,99.999924,0.0,0
83.170631,99.999924,0.0,0
83.170631,99.999924,0.0,0
83.170631,99.999924,0.0,0
83.170631,99.999924,0.0,0
83.170631,99.999924,0.0,0
83.170631,99.999924,741.153931,25
83.170631,99.999924,0.0,0
83.170631,99.999924,0.0,0
83.170631,99.999924,0.0,0
83.170631,99.999924,0.0,0
83.170631,99.999924,0.0,0
83.170631,99.999924,0.0,0
83.170631,99.999924,0.0,0
83.170631,99.999924,0.0,0
83.170631,99.999924,0.0,0
83.170631,99.999924,0.0,0
83.170631,99.999924,0.0,0
83.170631,99.999924,0.0,0
83.170631,99.999924,0.0,0
83.170631,99.999924,0.0,0
83.170631,99.999924,0.0,0
83.170631,99.999924,0.0,0
83.170631,99.999924,0.0,0
83.170631,99.999924,746.972229,50
83.170631,99.999924,0.0,0
83.170631,99.999924,0.0,0
83.170631,99.999924,0.0,0
83.170631,99.999924,0.0,0
83.170631,99.999924,0.0,0
83.170631,99.999924,0.0,0
83.170631,99.999924,0.0,0
83.170631,99.999924,0.0,0
83.170631,99.999924,0.0,0
83.170631,99.999924,0.0,0
83.170631,99.999924,0.0,0
83.170631,99.999924,0.0,0
83.170631,99.999924,0.0,0
83.170631,99.999924,0.0,0
83.170631,99.999924,0.0,0
83.170631,99.999924,0.0,0
83.170631,99.999924,0.0,0
83.170631,99.999924,0.0,0
83.170631,99.999924,774.330933,25
83.170631,99.999924,0.0,0
83.170631,99.999924,0.0,0
83.170631,99.999924,0.0,0
83.170631,99.999924,0.0,0
83.170631,99.999924,0.0,0
83.170631,99.999924,0.0,0
83.170631,99.999924,0.0,0
83.170631,99.999924,0.0,0
83.170631,99.999924,0.0,0
83.170631,99.999924,0.0,0
83.170631,99.999924,0.0,0
83.170631,99.999924,0.0,0
83.170631,99.999924,0.0,0
83.170631,99.999924,0.0,0
83.170631,99.999924,0.0,0
83.170631,99.999924,0.0,0
83.170631,99.999924,0.0,0
83.170631,99.999924,0.0,0
83.170631,99.999924,688.039856,50
83.170631,99.999924,0.0,0
83.170631,99.999924,0.0,0
83.170631,99.999924,0.0,0
83.170631,99.999924,0.0,0
83.170631,99.999924,0.0,0
83.170631,99.999924,0.0,0
83.170631,99.999924,0.0,0
83.170631,99.999924,0.0,0
83.170631,99.999924,0.0,0
83.170631,99.999924,0.0,0
83.170631,99.999924,0.0,0
83.170631,99.999924,0.0,0
83.170631,99.999924,0.0,0
83.170631,99.999924,0.0,0
83.170631,99.999924,0.0,0
83.170631,99.999924,0.0,0
83.170631,99.999924,0.0,0
83.170631,99.999924,0.0,0
83.089706,99.999924,756.240234,100
83.012825,99.999924,0.0,0
82.939789,99.999924,0.0,0
82.870407,99.999924,0.0,0
82.804489,99.999924,0.0,0
82.741867,99.999924,0.0,0
82.682381,99.999924,0.0,0
82.62587,99.999924,0.0,0
82.572182,99.999924,0.0,0
82.521179,99.999924,0.0,0
82.472725,99.999924,0.0,0
82.426697,99.999924,0.0,0
82.382965,99.999924,0.0,0
82.341423,99.999924,0.0,0
82.301956,99.999924,0.0,0
82.264465,99.999924,0.0,0
82.228844,99.999924,0.0,0
82.195007,99.999924,0.0,0
82.162865,99.999924,0.0,0
82.132324,99.999924,0.0,0
82.049019,99.999924,766.335144,100
81.969879,99.999924,0.0,0
81.894699,99.999924,0.0,0
81.82328,99.999924,0.0,0
81.755432,99.999924,0.0,0
81.690971,99.999924,0.0,0
81.629738,99.999924,0.0,0
81.571564,99.999924,0.0,0
81.516296,99.999924,0.0,0
81.463799,99.999924,0.0,0
81.413925,99.999924,0.0,0
81.366547,99.999924,0.0,0
81.321533,99.999924,0.0,0
81.27877,99.999924,0.0,0
81.238144,99.999924,0.0,0
81.199554,99.999924,0.0,0
81.199554,99.999924,765.531372,25
81.199554,99.999924,0.0,0
81.199554,99.999924,0.0,0
81.199554,99.999924,0.0,0
81.199554,99.999924,0.0,0
81.199554,99.999924,0.0,0
81.199554,99.999924,0.0,0
81.199554,99.999924,0.0,0
81.199554,99.999924,0.0,0
81.199554,99.999924,0.0,0
81.199554,99.999924,0.0,0
81.199554,99.999924,0.0,0
81.199554,99.999924,0.0,0
81.199554,99.999924,0.0,0
81.199554,99.999924,0.0,0
81.199554,99.999924,0.0,0
81.199554,99.999924,0.0,0
81.199554,99.999924,0.0,0
81.199554,99.999924,0.0,0
81.199554,99.999924,0.0,0
81.199554,99.999924,0.0,0
81.199554,99.999924,0.0,0
81.199554,99.999924,0.0,0
81.199554,99.999924,0.0,0
81.199554,99.999924,0.0,0
81.199554,99.999924,0.0,0
81.199554,99.999924,0.0,0
81.199554,99.999924,0.0,0
81.199554,99.999924,0.0,0
81.199554,99.999924,0.0,0
81.199554,99.999924,0.0,0
81.199554,99.999924,0.0,0
81.199554,99.999924,0.0,0
81.199554,99.999924,0.0,0
81.199554,99.999924,0.0,0
81.199554,99.999924,0.0,0
81.199554,99.999924,0.0,0
81.199554,99.999924,0.0,0
81.199554,99.999924,1416.741455,25
81.199554,99.999924,0.0,0
81.199554,99.999924,0.0,0
81.199554,99.999924,0.0,0
81.199554,99.999924,0.0,0
81.199554,99.999924,0.0,0
81.199554,99.999924,0.0,0
81.199554,99.999924,0.0,0
81.199554,99.999924,0.0,0
81.199554,99.999924,0.0,0
81.199554,99.999924,0.0,0
81.199554,99.999924,0.0,0
81.199554,99.999924,0.0,0
81.199554,99.999924,0.0,0
81.199554,99.999924,0.0,0
81.199554,99.999924,0.0,0
81.199554,99.999924,0.0,0
81.199554,99.999924,0.0,0
81.199554,99.999924,739.275085,25
81.199554,99.999924,0.0,0
81.199554,99.999924,0.0,0
81.199554,99.999924,0.0,0
81.199554,99.999924,0.0,0
81.199554,99.999924,0.0,0
81.199554,99.999924,0.0,0
81.199554,99.999924,0.0,0
81.199554,99.999924,0.0,0
81.199554,99.999924,0.0,0
81.199554,99.999924,0.0,0
81.199554,99.999924,0.0,0
81.199554,99.999924,0.0,0
81.199554,99.999924,0.0,0
81.199554,99.999924,0.0,0
81.199554,99.999924,0.0,0
81.199554,99.999924,715.92981,50
81.199554,99.999924,0.0,0
81.199554,99.999924,0.0,0
81.199554,99.999924,0.0,0
81.199554,99.999924,0.0,0
81.199554,99.999924,0.0,0
81.199554,99.999924,0.0,0
81.199554,99.999924,0.0,0
81.199554,99.999924,0.0,0
81.199554,99.999924,0.0,0
81.199554,99.999924,0.0,0
81.199554,99.999924,0.0,0
81.199554,99.999924,0.0,0
81.199554,99.999924,0.0,0
81.199554,99.999924,0.0,0
81.199554,99.999924,0.0,0
81.199554,99.999924,0.0,0
81.199554,99.999924,0.0,0
81.199554,99.999924,0.0,0
81.199554,99.999924,0.0,0
81.199554,99.999924,0.0,0
81.199554,99.999924,0.0,0
81.199554,99.999924,0.0,0
81.199554,99.999924,0.0,0
81.199554,99.999924,0.0,0
81.199554,99.999924,0.0,0
81.199554,99.999924,0.0,0
81.199554,99.999924,0.0,0
81.199554,99.999924,0.0,0
81.199554,99.999924,0.0,0
81.199554,99.999924,0.0,0
81.199554,99.999924,0.0,0
81.199554,99.999924,0.0,0
81.199554,99.999924,0.0,0
81.199554,99.999924,0.0,0
81.199554,99.999924,0.0,0
81.199554,99.999924,0.0,0
81.199554,99.999924,0.0,0
81.199554,99.999924,0.0,0
81.199554,99.999924,1473.123535,25
81.199554,99.999924,0.0,0
81.199554,99.999924,0.0,0
81.199554,99.999924,0.0,0
81.199554,99.999924,0.0,0
81.199554,99.999924,0.0,0
81.199554,99.999924,0.0,0
81.199554,99.999924,0.0,0
81.199554,99.999924,0.0,0
81.199554,99.999924,0.0,0
81.199554,99.999924,0.0,0
81.199554,99.999924,0.0,0
81.199554,99.999924,0.0,0
81.199554,99.999924,0.0,0
81.199554,99.999924,0.0,0
81.199554,99.999924,0.0,0
81.199554,99.999924,0.0,0
81.199554,99.999924,0.0,0
81.199554,99.999924,0.0,0
81.199554,99.999924,0.0,0
81.199554,99.999924,0.0,0
81.199554,99.999924,815.329834,25
81.199554,99.999924,0.0,0
81.199554,99.999924,0.0,0
81.199554,99.999924,0.0,0
81.199554,99.999924,0.0,0
81.199554,99.999924,0.0,0
81.199554,99.999924,0.0,0
81.199554,99.999924,0.0,0
81.199554,99.999924,0.0,0
81.199554,99.999924,0.0,0
81.199554,99.999924,0.0,0
81.199554,99.999924,0.0,0
81.199554,99.999924,0.0,0
81.199554,99.999924,0.0,0
81.199554,99.999924,0.0,0
81.199554,99.999924,704.388733,50
81.199554,99.999924,0.0,0
81.199554,99.999924,0.0,0
81.199554,99.999924,0.0,0
81.199554,99.999924,0.0,0
81.199554,99.999924,0.0,0
81.199554,99.999924,0.0,0
81.199554,99.999924,0.0,0
81.199554,99.999924,0.0,0
81.199554,99.999924,0.0,0
81.199554,99.999924,0.0,0
81.199554,99.999924,0.0,0
81.199554,99.999924,0.0,0
81.199554,99.999924,0.0,0
81.199554,99.999924,0.0,0
81.199554,99.999924,0.0,0
81.199554,99.999924,0.0,0
81.199554,99.999924,0.0,0
81.199554,99.999924,0.0,0
81.199554,99.999924,0.0,0
81.199554,99.999924,0.0,0
81.199554,99.999924,0.0,0
81.199554,99.999924,0.0,0
81.199554,99.999924,0.0,0
81.199554,99.999924,0.0,0
81.199554,99.999924,0.0,0
81.199554,99.999924,0.0,0
81.199554,99.999924,0.0,0
81.199554,99.999924,0.0,0
81.199554,99.999924,0.0,0
81.199554,99.999924,0.0,0
81.199554,99.999924,0.0,0
81.199554,99.999924,0.0,0
81.199554,99.999924,0.0,0
81.199554,99.999924,0.0,0
81.199554,99.999924,0.0,0
81.199554,99.999924,0.0,0
81.199554,99.999924,0.0,0
81.199554,99.999924,0.0,0
81.199554,99.999924,1419.331543,25
81.199554,99.999924,0.0,0
81.199554,99.999924,0.0,0
81.199554,99.999924,0.0,0
81.199554,99.999924,0.0,0
81.199554,99.999924,0.0,0
81.199554,99.999924,0.0,0
81.199554,99.999924,0.0,0
81.199554,99.999924,0.0,0
81.199554,99.999924,0.0,0
81.199554,99.999924,0.0,0
81.199554,99.999924,0.0,0
81.199554,99.999924,0.0,0
81.199554,99.999924,0.0,0
81.199554,99.999924,0.0,0
81.199554,99.999924,0.0,0
81.199554,99.999924,0.0,0
81.199554,99.999924,724.356506,25
81.199554,99.999924,0.0,0
81.199554,99.999924,0.0,0
81.199554,99.999924,0.0,0
81.199554,99.999924,0.0,0
81.199554,99.999924,0.0,0
81.199554,99.999924,0.0,0
81.199554,99.999924,0.0,0
81.199554,99.999924,0.0,0
81.199554,99.999924,0.0,0
81.199554,99.999924,0.0,0
81.199554,99.999924,0.0,0
81.199554,99.999924,0.0,0
81.199554,99.999924,0.0,0
81.199554,99.999924,0.0,0
81.199554,99.999924,768.38208,25
81.199554,99.999924,0.0,0
81.199554,99.999924,0.0,0
81.199554,99.999924,0.0,0
81.199554,99.999924,0.0,0
81.199554,99.999924,0.0,0
81.199554,99.999924,0.0,0
81.199554,99.999924,0.0,0
81.199554,99.999924,0.0,0
81.199554,99.999924,0.0,0
81.199554,99.999924,0.0,0
81.199554,99.999924,0.0,0
81.199554,99.999924,0.0,0
81.199554,99.999924,0.0,0
81.199554,99.999924,0.0,0
81.199554,99.999924,0.0,0
81.199554,99.999924,0.0,0
81.199554,99.999924,0.0,0
81.199554,99.999924,0.0,0
81.199554,99.999924,0.0,0
81.199554,99.999924,0.0,0
81.199554,99.999924,0.0,0
81.199554,99.999924,0.0,0
81.199554,99.999924,0.0,0
81.199554,99.999924,0.0,0
81.199554,99.999924,0.0,0
81.199554,99.999924,0.0,0
81.199554,99.999924,0.0,0
81.199554,99.999924,0.0,0
81.199554,99.999924,0.0,0
81.199554,99.999924,0.0,0
81.199554,99.999924,0.0,0
81.199554,99.999924,0.0,0
81.199554,99.999924,0.0,0
81.199554,99.999924,0.0,0
81.199554,99.999924,0.0,0
81.199554,99.999924,0.0,0
81.199554,99.999924,0.0,0
81.199554,99.999924,0.0,0
81.199554,99.999924,0.0,0
81.199554,99.999924,0.0,0
81.199554,99.999924,0.0,0
81.199554,99.999924,0.0,0
81.199554,99.999924,0.0,0
81.199554,99.999924,0.0,0
81.199554,99.999924,763.170044,50
81.199554,99.999924,0.0,0
81.199554,99.999924,0.0,0
81.199554,99.999924,0.0,0
81.199554,99.999924,0.0,0
81.199554,99.999924,0.0,0
81.199554,99.999924,0.0,0
81.199554,99.999924,0.0,0
81.199554,99.999924,0.0,0
81.199554,99.999924,0.0,0
81.199554,99.999924,0.0,0
81.199554,99.999924,0.0,0
81.199554,99.999924,0.0,0
81.199554,99.999924,0.0,0
81.199554,99.999924,0.0,0
81.199554,99.999924,1568.687378,25
81.199554,99.999924,0.0,0
81.199554,99.999924,0.0,0
81.199554,99.999924,0.0,0
81.199554,99.999924,0.0,0
81.199554,99.999924,0.0,0
81.199554,99.999924,0.0,0
81.199554,99.999924,0.0,0
81.199554,99.999924,0.0,0
81.199554,99.999924,0.0,0
81.199554,99.999924,0.0,0
81.199554,99.999924,0.0,0
81.199554,99.999924,0.0,0
81.199554,99.999924,0.0,0
81.199554,99.999924,0.0,0
81.199554,99.999924,0.0,0
81.199554,99.999924,0.0,0
81.199554,99.999924,0.0,0
81.199554,99.999924,0.0,0
81.199554,99.999924,0.0,0
81.199554,99.999924,0.0,0
81.199554,99.999924,767.065552,25
81.199554,99.999924,0.0,0
81.199554,99.999924,0.0,0
81.199554,99.999924,0.0,0
81.199554,99.999924,0.0,0
81.199554,99.999924,0.0,0
81.199554,99.999924,0.0,0
81.199554,99.999924,0.0,0
81.199554,99.999924,0.0,0
81.199554,99.999924,0.0,0
81.199554,99.999924,0.0,0
81.199554,99.999924,0.0,0
81.199554,99.999924,0.0,0
81.199554,99.999924,0.0,0
81.199554,99.999924,0.0,0
81.199554,99.999924,0.0,0
81.199554,99.999924,0.0,0
81.199554,99.999924,0.0,0
81.199554,99.999924,678.157166,50
81.199554,99.999924,0.0,0
81.199554,99.999924,0.0,0
81.199554,99.999924,0.0,0
81.199554,99.999924,0.0,0
81.199554,99.999924,0.0,0
81.199554,99.999924,0.0,0
81.199554,99.999924,0.0,0
81.199554,99.999924,0.0,0
81.199554,99.999924,0.0,0
81.199554,99.999924,0.0,0
81.199554,99.999924,0.0,0
81.199554,99.999924,0.0,0
81.199554,99.999924,0.0,0
81.199554,99.999924,0.0,0
81.199554,99.999924,0.0,0
81.199554,99.999924,0.0,0
81.199554,99.999924,0.0,0
81.228157,99.999924,750.034973,100
81.255333,99.999924,0.0,0
81.281151,99.999924,0.0,0
81.305679,99.999924,0.0,0
81.328979,99.999924,0.0,0
81.351112,99.999924,0.0,0
81.372139,99.999924,0.0,0
81.392113,99.999924,0.0,0
81.411095,99.999924,0.0,0
81.429123,99.999924,0.0,0
81.446251,99.999924,0.0,0
81.462524,99.999924,0.0,0
81.477982,99.999924,0.0,0
81.492668,99.999924,0.0,0
81.506622,99.999924,0.0,0
81.519875,99.999924,0.0,0
81.532463,99.999924,0.0,0
81.492653,99.999924,773.128906,100
81.454834,99.999924,0.0,0
81.4189,99.999924,0.0,0
81.384766,99.999924,0.0,0
81.352341,99.999924,0.0,0
81.321533,99.999924,0.0,0
81.292267,99.999924,0.0,0
81.264465,99.999924,0.0,0
81.238052,99.999924,0.0,0
81.212959,99.999924,0.0,0
81.189125,99.999924,0.0,0
81.166481,99.999924,0.0,0
81.144966,99.999924,0.0,0
81.124527,99.999924,0.0,0
81.10511,99.999924,0.0,0
81.086662,99.999924,0.0,0
81.069138,99.999924,0.0,0
81.05249,99.999924,0.0,0
81.036674,99.999924,0.0,0
81.021652,99.999924,0.0,0
81.007378,99.999924,0.0,0
80.99382,99.999924,0.0,0
80.942116,99.999924,769.046631,100
80.892998,99.999924,0.0,0
80.846336,99.999924,0.0,0
80.802002,99.999924,0.0,0
80.759888,99.999924,0.0,0
80.719879,99.999924,0.0,0
80.68187,99.999924,0.0,0
80.64576,99.999924,0.0,0
80.611458,99.999924,0.0,0
80.578873,99.999924,0.0,0
80.547913,99.999924,0.0,0
80.518501,99.999924,0.0,0
80.490562,99.999924,0.0,0
80.46402,99.999924,0.0,0
80.438805,99.999924,0.0,0
80.414848,99.999924,0.0,0
80.39209,99.999924,0.0,0
80.370468,99.999924,0.0,0
80.34539,99.999924,754.234924,100
80.321564,99.999924,0.0,0
80.298927,99.999924,0.0,0
80.277428,99.999924,0.0,0
80.257004,99.999924,0.0,0
80.237602,99.999924,0.0,0
80.21917,99.999924,0.0,0
80.20166,99.999924,0.0,0
80.18502,99.999924,0.0,0
80.169212,99.999924,0.0,0
80.154198,99.999924,0.0,0
80.139931,99.999924,0.0,0
80.126381,99.999924,0.0,0
80.11351,99.999924,0.0,0
80.10128,99.999924,0.0,0
80.089661,99.999924,0.0,0
80.078621,99.999924,0.0,0
80.068138,99.999924,0.0,0
80.058174,99.999924,0.0,0
79.958176,99.999924,804.358398,100
79.863174,99.999924,0.0,0
79.772926,99.999924,0.0,0
79.687187,99.999924,0.0,0
79.605736,99.999924,0.0,0
79.528358,99.999924,0.0,0
79.454849,99.999924,0.0,0
79.385017,99.999924,0.0,0
79.318672,99.999924,0.0,0
79.255646,99.999924,0.0,0
79.19577,99.999924,0.0,0
79.138885,99.999924,0.0,0
79.084846,99.999924,0.0,0
79.033508,99.999924,0.0,0
78.984741,99.999924,0.0,0
78.938408,99.999924,0.0,0
78.894394,99.999924,0.0,0
78.852585,99.999924,0.0,0
78.812866,99.999924,0.0,0
78.775131,99.999924,0.0,0
78.739281,99.999924,0.0,0
78.705223,99.999924,0.0,0
78.672867,99.999924,0.0,0
78.572861,99.999924,847.864319,100
78.477859,99.999924,0.0,0
78.387604,99.999924,0.0,0
78.301865,99.999924,0.0,0
78.220413,99.999924,0.0,0
78.143036,99.999924,0.0,0
78.069527,99.999924,0.0,0
77.999687,99.999924,0.0,0
77.933342,99.999924,0.0,0
77.870316,99.999924,0.0,0
77.81044,99.999924,0.0,0
77.753555,99.999924,0.0,0
77.699516,99.999924,0.0,0
77.648178,99.999924,0.0,0
77.599411,99.999924,0.0,0
77.553078,99.999924,0.0,0
77.509064,99.999924,0.0,0
77.467247,99.999924,0.0,0
77.38401,99.999924,788.609253,100
77.304932,99.999924,0.0,0
77.229805,99.999924,0.0,0
77.15844,99.999924,0.0,0
77.090637,99.999924,0.0,0
77.02623,99.999924,0.0,0
76.965042,99.999924,0.0,0
76.906914,99.999924,0.0,0
76.851692,99.999924,0.0,0
76.799232,99.999924,0.0,0
76.74939,99.999924,0.0,0
76.702042,99.999924,0.0,0
76.657059,99.999924,0.0,0
76.614326,99.999924,0.0,0
76.57373,99.999924,0.0,0
76.535164,99.999924,0.0,0
76.498528,99.999924,0.0,0
76.463722,99.999924,0.0,0
76.430656,99.999924,0.0,0
76.399246,99.999924,0.0,0
76.380104,99.999924,758.649292,100
76.361916,99.999924,0.0,0
76.344635,99.999924,0.0,0
76.328224,99.999924,0.0,0
76.31263,99.999924,0.0,0
76.297813,99.999924,0.0,0
76.283745,99.999924,0.0,0
76.270378,99.999924,0.0,0
76.257675,99.999924,0.0,0
76.245613,99.999924,0.0,0
76.234154,99.999924,0.0,0
76.223267,99.999924,0.0,0
76.212921,99.999924,0.0,0
76.203094,99.999924,0.0,0
76.193756,99.999924,0.0,0
76.184883,99.999924,0.0,0
76.17646,99.999924,0.0,0
76.168457,99.999924,711.492615,100
76.160851,99.999924,0.0,0
76.153625,99.999924,0.0,0
76.146759,99.999924,0.0,0
76.140236,99.999924,0.0,0
76.134041,99.999924,0.0,0
76.128159,99.999924,0.0,0
76.122566,99.999924,0.0,0
76.117256,99.999924,0.0,0
76.112213,99.999924,0.0,0
76.107422,99.999924,0.0,0
76.102867,99.999924,0.0,0
76.098541,99.999924,0.0,0
76.094429,99.999924,0.0,0
76.090523,99.999924,0.0,0
76.086815,99.999924,0.0,0
76.08329,99.999924,0.0,0
76.079941,99.999924,0.0,0
76.076759,99.999924,729.616272,100
76.073738,99.999924,0.0,0
76.070869,99.999924,0.0,0
76.068146,99.999924,0.0,0
76.065559,99.999924,0.0,0
76.063103,99.999924,0.0,0
76.060768,99.999924,0.0,0
76.058548,99.999924,0.0,0
76.056442,99.999924,0.0,0
76.054436,99.999924,0.0,0
76.052536,99.999924,0.0,0
76.050728,99.999924,0.0,0
76.049011,99.999924,0.0,0
76.047379,99.999924,0.0,0
76.04583,99.999924,0.0,0
76.044357,99.999924,0.0,0
76.042961,99.999924,0.0,0
76.041634,99.999924,0.0,0
76.040367,99.999924,0.0,0
76.039169,99.999924,0.0,0
76.038033,99.999924,0.0,0
76.036949,99.999924,766.321045,100
76.035919,99.999924,0.0,0
76.034943,99.999924,0.0,0
76.034012,99.999924,0.0,0
76.033127,99.999924,0.0,0
76.032288,99.999924,0.0,0
76.031494,99.999924,0.0,0
76.030739,99.999924,0.0,0
76.030022,99.999924,0.0,0
76.029343,99.999924,0.0,0
76.028694,99.999924,0.0,0
76.028076,99.999924,0.0,0
76.027489,99.999924,0.0,0
76.026932,99.999924,0.0,0
76.026405,99.999924,0.0,0
76.025902,99.999924,0.0,0
76.025429,99.999924,0.0,0
76.024979,99.999924,0.0,0
76.024551,99.999924,787.352112,100
76.024139,99.999924,0.0,0
76.02375,99.999924,0.0,0
76.023384,99.999924,0.0,0
76.023033,99.999924,0.0,0
76.022697,99.999924,0.0,0
76.022385,99.999924,0.0,0
76.022087,99.999924,0.0,0
76.021805,99.999924,0.0,0
76.02153,99.999924,0.0,0
76.021271,99.999924,0.0,0
76.021027,99.999924,0.0,0
76.02079,99.999924,0.0,0
76.020569,99.999924,0.0,0
76.020355,99.999924,0.0,0
76.020157,99.999924,0.0,0
76.019966,99.999924,0.0,0
76.019783,99.999924,0.0,0
76.019615,99.999924,0.0,0
76.019455,99.999924,747.278503,100
76.019302,99.999924,0.0,0
76.019157,99.999924,0.0,0
76.01902,99.999924,0.0,0
76.01889,99.999924,0.0,0
76.018761,99.999924,0.0,0
76.018639,99.999924,0.0,0
76.018524,99.999924,0.0,0
76.018417,99.999924,0.0,0
76.018318,99.999924,0.0,0
76.018219,99.999924,0.0,0
76.018127,99.999924,0.0,0
76.018036,99.999924,0.0,0
76.017952,99.999924,0.0,0
76.017876,99.999924,0.0,0
76.017799,99.999924,0.0,0
76.017731,99.999924,0.0,0
76.017662,99.999924,0.0,0
76.017601,99.999924,690.125732,100
76.01754,99.999924,0.0,0
76.017479,99.999924,0.0,0
76.017426,99.999924,0.0,0
76.017372,99.999924,0.0,0
76.017319,99.999924,0.0,0
76.017273,99.999924,0.0,0
76.017227,99.999924,0.0,0
76.017181,99.999924,0.0,0
76.017143,99.999924,0.0,0
76.017105,99.999924,0.0,0
76.017067,99.999924,0.0,0
76.017029,99.999924,0.0,0
76.016998,99.999924,0.0,0
76.016968,99.999924,0.0,0
76.016937,99.999924,0.0,0
76.016907,99.999924,0.0,0
76.016876,99.999924,737.392456,100
76.016853,99.999924,0.0,0
76.01683,99.999924,0.0,0
76.016808,99.999924,0.0,0
76.016785,99.999924,0.0,0
76.016762,99.999924,0.0,0
76.016739,99.999924,0.0,0
76.016724,99.999924,0.0,0
76.016708,99.999924,0.0,0
76.016693,99.999924,0.0,0
76.016678,99.999924,0.0,0
76.016663,99.999924,0.0,0
76.016647,99.999924,0.0,0
76.016632,99.999924,0.0,0
76.016617,99.999924,0.0,0
76.016602,99.999924,0.0,0
76.016586,99.999924,0.0,0
76.016579,99.999924,0.0,0
76.016571,99.999924,0.0,0
76.016563,99.999924,0.0,0
76.016556,99.999924,0.0,0
76.016548,99.999924,763.016785,100
76.016541,99.999924,0.0,0
76.016533,99.999924,0.0,0
76.016525,99.999924,0.0,0
76.016518,99.999924,0.0,0
76.01651,99.999924,0.0,0
76.016502,99.999924,0.0,0
76.016495,99.999924,0.0,0
76.016487,99.999924,0.0,0
76.016479,99.999924,0.0,0
76.016472,99.999924,0.0,0
76.016464,99.999924,0.0,0
76.016457,99.999924,0.0,0
76.016449,99.999924,0.0,0
76.016441,99.999924,0.0,0
76.016441,99.999924,0.0,0
76.016441,99.999924,0.0,0
76.016441,99.999924,752.987061,100
76.016441,99.999924,0.0,0
76.016441,99.999924,0.0,0
76.016441,99.999924,0.0,0
76.016441,99.999924,0.0,0
76.016441,99.999924,0.0,0
76.016441,99.999924,0.0,0
76.016441,99.999924,0.0,0
76.016441,99.999924,0.0,0
76.016441,99.999924,0.0,0
76.016441,99.999924,0.0,0
76.016441,99.999924,0.0,0
76.016441,99.999924,0.0,0
76.016441,99.999924,0.0,0
76.016441,99.999924,0.0,0
76.016441,99.999924,0.0,0
76.016441,99.999924,0.0,0
76.016441,99.999924,0.0,0
76.016441,99.999924,0.0,0
76.016441,99.999924,0.0,0
76.016441,99.999924,0.0,0
76.016441,99.999924,0.0,0
76.016441,99.999924,0.0,0
76.016441,99.999924,0.0,0
76.016441,99.999924,0.0,0
76.016441,99.999924,0.0,0
76.016441,99.999924,0.0,0
76.016441,99.999924,0.0,0
76.016441,99.999924,0.0,0
76.016441,99.999924,0.0,0
76.016441,99.999924,0.0,0
76.016441,99.999924,0.0,0
76.016441,99.999924,0.0,0
76.016441,99.999924,0.0,0
76.016441,99.999924,0.0,0
76.016441,99.999924,0.0,0
76.016441,99.999924,0.0,0
76.016441,99.999924,0.0,0
76.016441,99.999924,757.985474,100
76.016441,99.999924,0.0,0
76.016441,99.999924,0.0,0
76.016441,99.999924,0.0,0
76.016441,99.999924,0.0,0
76.016441,99.999924,0.0,0
76.016441,99.999924,0.0,0
76.016441,99.999924,0.0,0
76.016441,99.999924,0.0,0
76.016441,99.999924,0.0,0
76.016441,99.999924,0.0,0
76.016441,99.999924,0.0,0
76.016441,99.999924,0.0,0
76.016441,99.999924,0.0,0
76.016441,99.999924,0.0,0
76.016441,99.999924,0.0,0
76.016441,99.999924,0.0,0
76.016441,99.999924,0.0,0
76.016441,99.999924,0.0,0
76.016441,99.999924,0.0,0
76.016441,99.999924,1462.722046,25
76.016441,99.999924,0.0,0
76.016441,99.999924,0.0,0
76.016441,99.999924,0.0,0
76.016441,99.999924,0.0,0
76.016441,99.999924,0.0,0
76.016441,99.999924,0.0,0
76.016441,99.999924,0.0,0
76.016441,99.999924,0.0,0
76.016441,99.999924,0.0,0
76.016441,99.999924,0.0,0
76.016441,99.999924,0.0,0
76.016441,99.999924,0.0,0
76.016441,99.999924,0.0,0
76.016441,99.999924,0.0,0
76.016441,99.999924,0.0,0
76.016441,99.999924,810.814575,25
76.016441,99.999924,0.0,0
76.016441,99.999924,0.0,0
76.016441,99.999924,0.0,0
76.016441,99.999924,0.0,0
76.016441,99.999924,0.0,0
76.016441,99.999924,0.0,0
76.016441,99.999924,0.0,0
76.016441,99.999924,0.0,0
76.016441,99.999924,0.0,0
76.016441,99.999924,0.0,0
76.016441,99.999924,0.0,0
76.016441,99.999924,0.0,0
76.016441,99.999924,0.0,0
76.016441,99.999924,0.0,0
76.016441,99.999924,0.0,0
76.016441,99.999924,0.0,0
76.016441,99.999924,0.0,0
76.016441,99.999924,0.0,0
76.016441,99.999924,0.0,0
76.016441,99.999924,0.0,0
76.016441,99.999924,0.0,0
76.016441,99.999924,0.0,0
76.016441,99.999924,0.0,0
76.016441,99.999924,668.848633,50
76.016441,99.999924,0.0,0
76.016441,99.999924,0.0,0
76.016441,99.999924,0.0,0
76.016441,99.999924,0.0,0
76.016441,99.999924,0.0,0
76.016441,99.999924,0.0,0
76.016441,99.999924,0.0,0
76.016441,99.999924,0.0,0
76.016441,99.999924,0.0,0
76.016441,99.999924,0.0,0
76.016441,99.999924,0.0,0
76.016441,99.999924,0.0,0
76.016441,99.999924,0.0,0
76.016441,99.999924,780.609314,25
76.016441,99.999924,0.0,0
76.016441,99.999924,0.0,0
76.016441,99.999924,0.0,0
76.016441,99.999924,0.0,0
76.016441,99.999924,0.0,0
76.016441,99.999924,0.0,0
76.016441,99.999924,0.0,0
76.016441,99.999924,0.0,0
76.016441,99.999924,0.0,0
76.016441,99.999924,0.0,0
76.016441,99.999924,0.0,0
76.016441,99.999924,0.0,0
76.016441,99.999924,0.0,0
76.016441,99.999924,0.0,0
76.016441,99.999924,0.0,0
76.016441,99.999924,694.156738,50
76.016441,99.999924,0.0,0
76.016441,99.999924,0.0,0
76.016441,99.999924,0.0,0
76.016441,99.999924,0.0,0
76.016441,99.999924,0.0,0
76.016441,99.999924,0.0,0
76.016441,99.999924,0.0,0
76.016441,99.999924,0.0,0
76.016441,99.999924,0.0,0
76.016441,99.999924,0.0,0
76.016441,99.999924,399.099915,25
76.016441,99.999924,0.0,0
76.016441,99.999924,0.0,0
76.016441,99.999924,0.0,0
76.016441,99.999924,0.0,0
76.016441,99.999924,0.0,0
76.016441,99.999924,0.0,0
76.016441,99.999924,0.0,0
76.016441,99.999924,0.0,0
76.016441,99.999924,0.0,0
76.016441,99.999924,0.0,0
76.016441,99.999924,0.0,0
76.016441,99.999924,0.0,0
76.016441,99.999924,0.0,0
76.016441,99.999924,0.0,0
76.016441,99.999924,0.0,0
76.016441,99.999924,0.0,0
76.016441,99.999924,0.0,0
76.016441,99.999924,0.0,0
76.016441,99.999924,0.0,0
76.016441,99.999924,0.0,0
76.016441,99.999924,0.0,0
76.016441,99.999924,0.0,0
76.016441,99.999924,0.0,0
76.016441,99.999924,0.0,0
76.016441,99.999924,0.0,0
76.016441,99.999924,0.0,0
76.016441,99.999924,0.0,0
76.016441,99.999924,0.0,0
76.016441,99.999924,0.0,0
76.016441,99.999924,0.0,0
76.016441,99.999924,0.0,0
76.016441,99.999924,0.0,0
76.016441,99.999924,0.0,0
76.016441,99.999924,0.0,0
76.016441,99.999924,0.0,0
76.016441,99.999924,0.0,0
76.016441,99.999924,0.0,0
76.016441,99.999924,0.0,0
76.016441,99.999924,0.0,0
76.016441,99.999924,0.0,0
76.016441,99.999924,0.0,0
76.016441,99.999924,0.0,0
76.016441,99.999924,0.0,0
76.016441,99.999924,0.0,0
76.016441,99.999924,1053.2948,25
76.016441,99.999924,0.0,0
76.016441,99.999924,0.0,0
76.016441,99.999924,0.0,0
76.016441,99.999924,0.0,0
76.016441,99.999924,0.0,0
76.016441,99.999924,0.0,0
76.016441,99.999924,0.0,0
76.016441,99.999924,0.0,0
76.016441,99.999924,0.0,0
76.016441,99.999924,0.0,0
76.016441,99.999924,0.0,0
76.016441,99.999924,0.0,0
76.016441,99.999924,0.0,0
76.016441,99.999924,0.0,0
76.016441,99.999924,0.0,0
76.016441,99.999924,0.0,0
76.016441,99.999924,1401.030884,50
76.016441,99.999924,0.0,0
76.016441,99.999924,0.0,0
76.016441,99.999924,0.0,0
76.016441,99.999924,0.0,0
76.016441,99.999924,0.0,0
76.016441,99.999924,0.0,0
76.016441,99.999924,0.0,0
76.016441,99.999924,0.0,0
76.016441,99.999924,0.0,0
76.016441,99.999924,0.0,0
76.016441,99.999924,0.0,0
76.016441,99.999924,0.0,0
76.016441,99.999924,0.0,0
76.016441,99.999924,0.0,0
76.016441,99.999924,0.0,0
76.016441,99.999924,0.0,0
76.016441,99.999924,772.990417,25
76.016441,99.999924,0.0,0
76.016441,99.999924,0.0,0
76.016441,99.999924,0.0,0
76.016441,99.999924,0.0,0
76.016441,99.999924,0.0,0
76.016441,99.999924,0.0,0
76.016441,99.999924,0.0,0
76.016441,99.999924,0.0,0
76.016441,99.999924,0.0,0
76.016441,99.999924,0.0,0
76.016441,99.999924,0.0,0
76.016441,99.999924,0.0,0
76.016441,99.999924,0.0,0
76.016441,99.999924,0.0,0
76.016441,99.999924,0.0,0
76.016441,99.999924,0.0,0
76.016441,99.999924,0.0,0
76.016441,99.999924,0.0,0
76.016441,99.999924,0.0,0
76.016441,99.999924,0.0,0
76.016441,99.999924,0.0,0
76.016441,99.999924,0.0,0
76.016441,99.999924,724.850281,50
76.016441,99.999924,0.0,0
76.016441,99.999924,0.0,0
76.016441,99.999924,0.0,0
76.016441,99.999924,0.0,0
76.016441,99.999924,0.0,0
76.016441,99.999924,0.0,0
76.016441,99.999924,0.0,0
76.016441,99.999924,0.0,0
76.016441,99.999924,0.0,0
76.016441,99.999924,0.0,0
76.016441,99.999924,0.0,0
76.016441,99.999924,0.0,0
76.016441,99.999924,0.0,0
76.016441,99.999924,0.0,0
76.006142,99.999924,675.523071,100
75.996353,99.999924,0.0,0
75.987053,99.999924,0.0,0
75.978218,99.999924,0.0,0
75.969826,99.999924,0.0,0
75.961853,99.999924,0.0,0
75.954277,99.999924,0.0,0
75.947083,99.999924,0.0,0
75.940247,99.999924,0.0,0
75.933754,99.999924,0.0,0
75.927582,99.999924,0.0,0
75.921722,99.999924,0.0,0
75.916153,99.999924,0.0,0
75.910866,99.999924,0.0,0
75.905838,99.999924,0.0,0
75.901062,99.999924,0.0,0
75.89653,99.999924,0.0,0
75.89222,99.999924,0.0,0
75.936966,99.999924,761.995972,100
75.979469,99.999924,0.0,0
76.019852,99.999924,0.0,0
76.058212,99.999924,0.0,0
76.094658,99.999924,0.0,0
76.12928,99.999924,0.0,0
76.16217,99.999924,0.0,0
76.193413,99.999924,0.0,0
76.223099,99.999924,0.0,0
76.251297,99.999924,0.0,0
76.278084,99.999924,0.0,0
76.303535,99.999924,0.0,0
76.327713,99.999924,0.0,0
76.350685,99.999924,0.0,0
76.372505,99.999924,0.0,0
76.393234,99.999924,0.0,0
76.412926,99.999924,0.0,0
76.512924,99.999924,705.348267,100
76.607925,99.999924,0.0,0
76.698174,99.999924,0.0,0
76.783913,99.999924,0.0,0
76.865364,99.999924,0.0,0
76.942741,99.999924,0.0,0
77.016251,99.999924,0.0,0
77.086082,99.999924,0.0,0
77.152428,99.999924,0.0,0
77.215454,99.999924,0.0,0
77.27533,99.999924,0.0,0
77.332207,99.999924,0.0,0
77.386246,99.999924,0.0,0
77.437576,99.999924,0.0,0
77.486343,99.999924,0.0,0
77.532669,99.999924,0.0,0
77.576683,99.999924,0.0,0
77.618492,99.999924,0.0,0
77.658211,99.999924,0.0,0
77.695946,99.999924,0.0,0
77.731796,99.999924,0.0,0
77.765854,99.999924,0.0,0
77.79821,99.999924,0.0,0
77.898216,99.999924,751.695068,100
77.993217,99.999924,0.0,0
78.083473,99.999924,0.0,0
78.169212,99.999924,0.0,0
78.250664,99.999924,0.0,0
78.328041,99.999924,0.0,0
78.40155,99.999924,0.0,0
78.471382,99.999924,0.0,0
78.537727,99.999924,0.0,0
78.600754,99.999924,0.0,0
78.660629,99.999924,0.0,0
78.717514,99.999924,0.0,0
78.771553,99.999924,0.0,0
78.822891,99.999924,0.0,0
78.871658,99.999924,0.0,0
78.917992,99.999924,0.0,0
78.962006,99.999924,0.0,0
79.062004,99.999924,736.34198,100
79.157005,99.999924,0.0,0
79.247261,99.999924,0.0,0
79.333,99.999924,0.0,0
79.414452,99.999924,0.0,0
79.491829,99.999924,0.0,0
79.565338,99.999924,0.0,0
79.63517,99.999924,0.0,0
79.701515,99.999924,0.0,0
79.764542,99.999924,0.0,0
79.824417,99.999924,0.0,0
79.881302,99.999924,0.0,0
79.935341,99.999924,0.0,0
79.986679,99.999924,0.0,0
80.035446,99.999924,0.0,0
80.081779,99.999924,0.0,0
80.125793,99.999924,0.0,0
80.170174,99.999924,750.382446,100
80.212341,99.999924,0.0,0
80.252396,99.999924,0.0,0
80.290451,99.999924,0.0,0
80.326599,99.999924,0.0,0
80.360939,99.999924,0.0,0
80.393562,99.999924,0.0,0
80.424561,99.999924,0.0,0
80.454002,99.999924,0.0,0
80.481979,99.999924,0.0,0
80.508553,99.999924,0.0,0
80.533798,99.999924,0.0,0
80.557785,99.999924,0.0,0
80.580566,99.999924,0.0,0
80.602211,99.999924,0.0,0
80.622772,99.999924,0.0,0
80.642303,99.999924,0.0,0
80.660858,99.999924,0.0,0
80.712318,99.999924,730.608337,100
80.761208,99.999924,0.0,0
80.807648,99.999924,0.0,0
80.851768,99.999924,0.0,0
80.893684,99.999924,0.0,0
80.933502,99.999924,0.0,0
80.971329,99.999924,0.0,0
81.007263,99.999924,0.0,0
81.041405,99.999924,0.0,0
81.073837,99.999924,0.0,0
81.104645,99.999924,0.0,0
81.133911,99.999924,0.0,0
81.16172,99.999924,0.0,0
81.188133,99.999924,0.0,0
81.213226,99.999924,0.0,0
81.237068,99.999924,0.0,0
81.25972,99.999924,0.0,0
81.281235,99.999924,0.0,0
81.301674,99.999924,0.0,0
81.306122,99.999924,717.983704,100
81.310349,99.999924,0.0,0
81.314362,99.999924,0.0,0
81.318176,99.999924,0.0,0
81.3218,99.999924,0.0,0
81.325241,99.999924,0.0,0
81.328514,99.999924,0.0,0
81.331619,99.999924,0.0,0
81.334572,99.999924,0.0,0
81.337379,99.999924,0.0,0
81.340042,99.999924,0.0,0
81.342575,99.999924,0.0,0
81.344978,99.999924,0.0,0
81.34726,99.999924,0.0,0
81.349426,99.999924,0.0,0
81.351486,99.999924,0.0,0
81.353447,99.999924,0.0,0
81.355309,99.999924,0.0,0
81.357079,99.999924,0.0,0
81.358757,99.999924,784.608398,100
81.360352,99.999924,0.0,0
81.36187,99.999924,0.0,0
81.363312,99.999924,0.0,0
81.364677,99.999924,0.0,0
81.365974,99.999924,0.0,0
81.36721,99.999924,0.0,0
81.368385,99.999924,0.0,0
81.369499,99.999924,0.0,0
81.37056,99.999924,0.0,0
81.371567,99.999924,0.0,0
81.37252,99.999924,0.0,0
81.373428,99.999924,0.0,0
81.37429,99.999924,0.0,0
81.375107,99.999924,0.0,0
81.375885,99.999924,0.0,0
81.376625,99.999924,0.0,0
81.377327,99.999924,0.0,0
81.377991,99.999924,0.0,0
81.378624,99.999924,0.0,0
81.379227,99.999924,788.458679,100
81.379799,99.999924,0.0,0
81.380341,99.999924,0.0,0
81.380859,99.999924,0.0,0
81.381348,99.999924,0.0,0
81.381813,99.999924,0.0,0
81.382256,99.999924,0.0,0
81.382675,99.999924,0.0,0
81.383072,99.999924,0.0,0
81.383453,99.999924,0.0,0
81.383812,99.999924,0.0,0
81.384155,99.999924,0.0,0
81.384483,99.999924,0.0,0
81.384796,99.999924,0.0,0
81.385086,99.999924,0.0,0
81.385368,99.999924,0.0,0
81.385635,99.999924,0.0,0
81.385887,99.999924,0.0,0
81.386124,99.999924,795.734131,100
81.386353,99.999924,0.0,0
81.386566,99.999924,0.0,0
81.386772,99.999924,0.0,0
81.386971,99.999924,0.0,0
81.387154,99.999924,0.0,0
81.387329,99.999924,0.0,0
81.387497,99.999924,0.0,0
81.387657,99.999924,0.0,0
81.38781,99.999924,0.0,0
81.387955,99.999924,0.0,0
81.388092,99.999924,0.0,0
81.388222,99.999924,0.0,0
81.388344,99.999924,0.0,0
81.388458,99.999924,0.0,0
81.388565,99.999924,0.0,0
81.388672,99.999924,0.0,0
81.388771,99.999924,0.0,0
81.388863,99.999924,0.0,0
81.388954,99.999924,0.0,0
81.389038,99.999924,0.0,0
81.389122,99.999924,737.744263,100
81.389198,99.999924,0.0,0
81.389275,99.999924,0.0,0
81.389343,99.999924,0.0,0
81.389412,99.999924,0.0,0
81.389473,99.999924,0.0,0
81.389534,99.999924,0.0,0
81.389587,99.999924,0.0,0
81.389641,99.999924,0.0,0
81.389694,99.999924,0.0,0
81.38974,99.999924,0.0,0
81.389786,99.999924,0.0,0
81.389832,99.999924,0.0,0
81.38987,99.999924,0.0,0
81.389908,99.999924,0.0,0
81.389946,99.999924,0.0,0
81.389984,99.999924,0.0,0
81.390015,99.999924,0.0,0
81.390045,99.999924,0.0,0
81.390076,99.999924,800.445923,100
81.390106,99.999924,0.0,0
81.390137,99.999924,0.0,0
81.39016,99.999924,0.0,0
81.390182,99.999924,0.0,0
81.390205,99.999924,0.0,0
81.390228,99.999924,0.0,0
81.390251,99.999924,0.0,0
81.390274,99.999924,0.0,0
81.390297,99.999924,0.0,0
81.390312,99.999924,0.0,0
81.390327,99.999924,0.0,0
81.390343,99.999924,0.0,0
81.390358,99.999924,0.0,0
81.390373,99.999924,0.0,0
81.390388,99.999924,0.0,0
81.390404,99.999924,0.0,0
81.390419,99.999924,0.0,0
81.390434,99.999924,0.0,0
81.39045,99.999924,0.0,0
81.390457,99.999924,0.0,0
81.390465,99.999924,829.272156,100
81.390472,99.999924,0.0,0
81.39048,99.999924,0.0,0
81.390488,99.999924,0.0,0
81.390495,99.999924,0.0,0
81.390503,99.999924,0.0,0
81.390511,99.999924,0.0,0
81.390518,99.999924,0.0,0
81.390526,99.999924,0.0,0
81.390533,99.999924,0.0,0
81.390541,99.999924,0.0,0
81.390549,99.999924,0.0,0
81.390556,99.999924,0.0,0
81.390564,99.999924,0.0,0
81.390572,99.999924,0.0,0
81.390579,99.999924,0.0,0
81.390587,99.999924,0.0,0
81.390594,99.999924,0.0,0
81.390594,99.999924,0.0,0
81.390594,99.999924,761.700867,100
81.390594,99.999924,0.0,0
81.390594,99.999924,0.0,0
81.390594,99.999924,0.0,0
81.390594,99.999924,0.0,0
81.390594,99.999924,0.0,0
81.390594,99.999924,0.0,0
81.390594,99.999924,0.0,0
81.390594,99.999924,0.0,0
81.390594,99.999924,0.0,0
81.390594,99.999924,0.0,0
81.390594,99.999924,0.0,0
81.390594,99.999924,0.0,0
81.390594,99.999924,0.0,0
81.390594,99.999924,0.0,0
81.390594,99.999924,0.0,0
81.390594,99.999924,0.0,0
81.390594,99.999924,0.0,0
81.390594,99.999924,0.0,0
81.390594,99.999924,0.0,0
81.390594,99.999924,0.0,0
81.390594,99.999924,836.069153,100
81.390594,99.999924,0.0,0
81.390594,99.999924,0.0,0
81.390594,99.999924,0.0,0
81.390594,99.999924,0.0,0
81.390594,99.999924,0.0,0
81.390594,99.999924,0.0,0
81.390594,99.999924,0.0,0
81.390594,99.999924,0.0,0
81.390594,99.999924,0.0,0
81.390594,99.999924,0.0,0
81.390594,99.999924,0.0,0
81.390594,99.999924,0.0,0
81.390594,99.999924,0.0,0
81.390594,99.999924,0.0,0
81.390594,99.999924,0.0,0
81.390594,99.999924,0.0,0
81.390594,99.999924,0.0,0
81.390594,99.999924,0.0,0
81.390594,99.999924,0.0,0
81.390594,99.999924,0.0,0
81.390594,99.999924,848.566589,100
81.390594,99.999924,0.0,0
81.390594,99.999924,0.0,0
81.390594,99.999924,0.0,0
81.390594,99.999924,0.0,0
81.390594,99.999924,0.0,0
81.390594,99.999924,0.0,0
81.390594,99.999924,0.0,0
81.390594,99.999924,0.0,0
81.390594,99.999924,0.0,0
81.390594,99.999924,0.0,0
81.390594,99.999924,0.0,0
81.390594,99.999924,0.0,0
81.390594,99.999924,0.0,0
81.390594,99.999924,0.0,0
81.390594,99.999924,0.0,0
81.390594,99.999924,0.0,0
81.390594,99.999924,0.0,0
81.390594,99.999924,0.0,0
81.390594,99.999924,0.0,0
81.390594,99.999924,0.0,0
81.390594,99.999924,816.048279,100
81.390594,99.999924,0.0,0
81.390594,99.999924,0.0,0
81.390594,99.999924,0.0,0
81.390594,99.999924,0.0,0
81.390594,99.999924,0.0,0
81.390594,99.999924,0.0,0
81.390594,99.999924,0.0,0
81.390594,99.999924,0.0,0
81.390594,99.999924,0.0,0
81.390594,99.999924,0.0,0
81.390594,99.999924,0.0,0
81.390594,99.999924,0.0,0
81.390594,99.999924,0.0,0
81.390594,99.999924,0.0,0
81.390594,99.999924,0.0,0
81.390594,99.999924,0.0,0
81.390594,99.999924,0.0,0
81.390594,99.999924,733.690613,100
81.390594,99.999924,0.0,0
81.390594,99.999924,0.0,0
81.390594,99.999924,0.0,0
81.390594,99.999924,0.0,0
81.390594,99.999924,0.0,0
81.390594,99.999924,0.0,0
81.390594,99.999924,0.0,0
81.390594,99.999924,0.0,0
81.390594,99.999924,0.0,0
81.390594,99.999924,0.0,0
81.390594,99.999924,0.0,0
81.390594,99.999924,0.0,0
81.390594,99.999924,0.0,0
81.390594,99.999924,0.0,0
81.390594,99.999924,0.0,0
81.390594,99.999924,0.0,0
81.390594,99.999924,0.0,0
81.390594,99.999924,0.0,0
81.390594,99.999924,0.0,0
81.390594,99.999924,818.445007,100
81.390594,99.999924,0.0,0
81.390594,99.999924,0.0,0
81.390594,99.999924,0.0,0
81.390594,99.999924,0.0,0
81.390594,99.999924,0.0,0
81.390594,99.999924,0.0,0
81.390594,99.999924,0.0,0
81.390594,99.999924,0.0,0
81.390594,99.999924,0.0,0
81.390594,99.999924,0.0,0
81.390594,99.999924,0.0,0
81.390594,99.999924,0.0,0
81.390594,99.999924,0.0,0
81.390594,99.999924,0.0,0
81.390594,99.999924,0.0,0
81.390594,99.999924,0.0,0
81.390594,99.999924,0.0,0
81.390594,99.999924,0.0,0
81.390594,99.999924,775.260681,100
81.390594,99.999924,0.0,0
81.390594,99.999924,0.0,0
81.390594,99.999924,0.0,0
81.390594,99.999924,0.0,0
81.390594,99.999924,0.0,0
81.390594,99.999924,0.0,0
81.390594,99.999924,0.0,0
81.390594,99.999924,0.0,0
81.390594,99.999924,0.0,0
81.390594,99.999924,0.0,0
81.390594,99.999924,0.0,0
81.390594,99.999924,0.0,0
81.390594,99.999924,0.0,0
81.390594,99.999924,0.0,0
81.390594,99.999924,0.0,0
81.390594,99.999924,0.0,0
81.390594,99.999924,0.0,0
81.390594,99.999924,0.0,0
81.390594,99.999924,718.513489,100
81.390594,99.999924,0.0,0
81.390594,99.999924,0.0,0
81.390594,99.999924,0.0,0
81.390594,99.999924,0.0,0
81.390594,99.999924,0.0,0
81.390594,99.999924,0.0,0
81.390594,99.999924,0.0,0
81.390594,99.999924,0.0,0
81.390594,99.999924,0.0,0
81.390594,99.999924,0.0,0
81.390594,99.999924,0.0,0
81.390594,99.999924,0.0,0
81.390594,99.999924,0.0,0
81.390594,99.999924,0.0,0
81.390594,99.999924,0.0,0
81.390594,99.999924,0.0,0
81.390594,99.999924,0.0,0
81.390594,99.999924,757.768311,100
81.390594,99.999924,0.0,0
81.390594,99.999924,0.0,0
81.390594,99.999924,0.0,0
81.390594,99.999924,0.0,0
81.390594,99.999924,0.0,0
81.390594,99.999924,0.0,0
81.390594,99.999924,0.0,0
81.390594,99.999924,0.0,0
81.390594,99.999924,0.0,0
81.390594,99.999924,0.0,0
81.390594,99.999924,0.0,0
81.390594,99.999924,0.0,0
81.390594,99.999924,0.0,0
81.390594,99.999924,0.0,0
81.390594,99.999924,0.0,0
81.390594,99.999924,0.0,0
81.390594,99.999924,0.0,0
81.390594,99.999924,0.0,0
81.390594,99.999924,0.0,0
81.390594,99.999924,774.437195,100
81.390594,99.999924,0.0,0
81.390594,99.999924,0.0,0
81.390594,99.999924,0.0,0
81.390594,99.999924,0.0,0
81.390594,99.999924,0.0,0
81.390594,99.999924,0.0,0
81.390594,99.999924,0.0,0
81.390594,99.999924,0.0,0
81.390594,99.999924,0.0,0
81.390594,99.999924,0.0,0
81.390594,99.999924,0.0,0
81.390594,99.999924,0.0,0
81.390594,99.999924,0.0,0
81.390594,99.999924,0.0,0
81.390594,99.999924,0.0,0
81.390594,99.999924,0.0,0
81.390594,99.999924,0.0,0
81.390594,99.999924,0.0,0
81.390594,99.999924,774.577454,100
81.390594,99.999924,0.0,0
81.390594,99.999924,0.0,0
81.390594,99.999924,0.0,0
81.390594,99.999924,0.0,0
81.390594,99.999924,0.0,0
81.390594,99.999924,0.0,0
81.390594,99.999924,0.0,0
81.390594,99.999924,0.0,0
81.390594,99.999924,0.0,0
81.390594,99.999924,0.0,0
81.390594,99.999924,0.0,0
81.390594,99.999924,0.0,0
81.390594,99.999924,0.0,0
81.390594,99.999924,0.0,0
81.390594,99.999924,0.0,0
81.390594,99.999924,0.0,0
81.390594,99.999924,0.0,0
81.390594,99.999924,0.0,0
81.390594,99.999924,725.150391,100
81.390594,99.999924,0.0,0
81.390594,99.999924,0.0,0
81.390594,99.999924,0.0,0
81.390594,99.999924,0.0,0
81.390594,99.999924,0.0,0
81.390594,99.999924,0.0,0
81.390594,99.999924,0.0,0
81.390594,99.999924,0.0,0
81.390594,99.999924,0.0,0
81.390594,99.999924,0.0,0
81.390594,99.999924,0.0,0
81.390594,99.999924,0.0,0
81.390594,99.999924,0.0,0
81.390594,99.999924,0.0,0
81.390594,99.999924,0.0,0
81.390594,99.999924,0.0,0
81.390594,99.999924,0.0,0
81.390594,99.999924,0.0,0
81.390594,99.999924,0.0,0
81.390594,99.999924,0.0,0
81.390594,99.999924,0.0,0
81.390594,99.999924,0.0,0
81.390594,99.999924,0.0,0
81.390594,99.999924,0.0,0
81.390594,99.999924,0.0,0
81.390594,99.999924,0.0,0
81.390594,99.999924,0.0,0
81.390594,99.999924,0.0,0
81.390594,99.999924,0.0,0
81.390594,99.999924,0.0,0
81.390594,99.999924,0.0,0
81.390594,99.999924,0.0,0
81.390594,99.999924,0.0,0
81.390594,99.999924,0.0,0
81.390594,99.999924,0.0,0
81.390594,99.999924,0.0,0
81.390594,99.999924,0.0,0
81.390594,99.999924,1541.255249,25
81.390594,99.999924,0.0,0
81.390594,99.999924,0.0,0
81.390594,99.999924,0.0,0
81.390594,99.999924,0.0,0
81.390594,99.999924,0.0,0
81.390594,99.999924,0.0,0
81.390594,99.999924,0.0,0
81.390594,99.999924,0.0,0
81.390594,99.999924,0.0,0
81.390594,99.999924,0.0,0
81.390594,99.999924,0.0,0
81.390594,99.999924,0.0,0
81.390594,99.999924,0.0,0
81.390594,99.999924,0.0,0
81.390594,99.999924,0.0,0
81.390594,99.999924,707.56958,25
81.390594,99.999924,0.0,0
81.390594,99.999924,0.0,0
81.390594,99.999924,0.0,0
81.390594,99.999924,0.0,0
81.390594,99.999924,0.0,0
81.390594,99.999924,0.0,0
81.390594,99.999924,0.0,0
81.390594,99.999924,0.0,0
81.390594,99.999924,0.0,0
81.390594,99.999924,0.0,0
81.390594,99.999924,0.0,0
81.390594,99.999924,0.0,0
81.390594,99.999924,0.0,0
81.390594,99.999924,0.0,0
81.390594,99.999924,0.0,0
81.390594,99.999924,0.0,0
81.390594,99.999924,0.0,0
81.390594,99.999924,0.0,0
81.390594,99.999924,546.571655,25
81.390594,99.999924,0.0,0
81.390594,99.999924,0.0,0
81.390594,99.999924,0.0,0
81.390594,99.999924,0.0,0
81.390594,99.999924,0.0,0
81.390594,99.999924,0.0,0
81.390594,99.999924,0.0,0
81.390594,99.999924,0.0,0
81.390594,99.999924,0.0,0
81.390594,99.999924,0.0,0
81.390594,99.999924,0.0,0
81.390594,99.999924,0.0,0
81.390594,99.999924,0.0,0
81.390594,99.999924,0.0,0
81.390594,99.999924,0.0,0
81.390594,99.999924,881.541138,25
81.390594,99.999924,0.0,0
81.390594,99.999924,0.0,0
81.390594,99.999924,0.0,0
81.390594,99.999924,0.0,0
81.390594,99.999924,0.0,0
81.390594,99.999924,0.0,0
81.390594,99.999924,0.0,0
81.390594,99.999924,0.0,0
81.390594,99.999924,0.0,0
81.390594,99.999924,0.0,0
81.390594,99.999924,0.0,0
81.390594,99.999924,0.0,0
81.390594,99.999924,0.0,0
81.390594,99.999924,0.0,0
81.390594,99.999924,0.0,0
81.390594,99.999924,535.698547,25
81.390594,99.999924,0.0,0
81.390594,99.999924,0.0,0
81.390594,99.999924,0.0,0
81.390594,99.999924,0.0,0
81.390594,99.999924,0.0,0
81.390594,99.999924,355.502716,25
81.390594,99.999924,0.0,0
81.390594,99.999924,0.0,0
81.390594,99.999924,0.0,0
81.390594,99.999924,0.0,0
81.390594,99.999924,0.0,0
81.390594,99.999924,0.0,0
81.390594,99.999924,0.0,0
81.390594,99.999924,0.0,0
81.390594,99.999924,0.0,0
81.390594,99.999924,0.0,0
81.390594,99.999924,343.37381,50
81.390594,99.999924,0.0,0
81.390594,99.999924,0.0,0
81.390594,99.999924,0.0,0
81.390594,99.999924,0.0,0
81.390594,99.999924,0.0,0
81.390594,99.999924,0.0,0
81.390594,99.999924,0.0,0
81.390594,99.999924,0.0,0
81.390594,99.999924,0.0,0
81.390594,99.999924,0.0,0
81.390594,99.999924,0.0,0
81.390594,99.999924,0.0,0
81.390594,99.999924,0.0,0
81.390594,99.999924,0.0,0
81.390594,99.999924,0.0,0
81.390594,99.999924,0.0,0
81.390594,99.999924,711.946411,25
81.390594,99.999924,0.0,0
81.390594,99.999924,0.0,0
81.390594,99.999924,0.0,0
81.390594,99.999924,0.0,0
81.390594,99.999924,0.0,0
81.390594,99.999924,0.0,0
81.390594,99.999924,0.0,0
81.390594,99.999924,0.0,0
81.390594,99.999924,0.0,0
81.390594,99.999924,0.0,0
81.390594,99.999924,0.0,0
81.390594,99.999924,0.0,0
81.390594,99.999924,0.0,0
81.390594,99.999924,0.0,0
81.390594,99.999924,0.0,0
81.390594,99.999924,0.0,0
81.390594,99.999924,0.0,0
81.390594,99.999924,0.0,0
81.390594,99.999924,0.0,0
81.390594,99.999924,0.0,0
81.390594,99.999924,0.0,0
81.390594,99.999924,0.0,0
81.390594,99.999924,0.0,0
81.390594,99.999924,0.0,0
81.390594,99.999924,0.0,0
81.390594,99.999924,0.0,0
81.390594,99.999924,0.0,0
81.390594,99.999924,0.0,0
81.390594,99.999924,0.0,0
81.390594,99.999924,0.0,0
81.390594,99.999924,0.0,0
81.390594,99.999924,0.0,0
81.390594,99.999924,0.0,0
81.390594,99.999924,0.0,0
81.390594,99.999924,0.0,0
81.390594,99.999924,728.558105,50
81.390594,99.999924,0.0,0
81.390594,99.999924,0.0,0
81.390594,99.999924,0.0,0
81.390594,99.999924,0.0,0
81.390594,99.999924,0.0,0
81.390594,99.999924,0.0,0
81.390594,99.999924,0.0,0
81.390594,99.999924,0.0,0
81.390594,99.999924,0.0,0
81.390594,99.999924,0.0,0
81.390594,99.999924,0.0,0
81.390594,99.999924,0.0,0
81.390594,99.999924,0.0,0
81.390594,99.999924,0.0,0
81.390594,99.999924,0.0,0
81.390594,99.999924,0.0,0
81.390594,99.999924,0.0,0
81.390594,99.999924,0.0,0
81.390594,99.999924,0.0,0
81.390594,99.999924,1532.125,25
81.390594,99.999924,0.0,0
81.390594,99.999924,0.0,0
81.390594,99.999924,0.0,0
81.390594,99.999924,0.0,0
81.390594,99.999924,0.0,0
81.390594,99.999924,0.0,0
81.390594,99.999924,0.0,0
81.390594,99.999924,0.0,0
81.390594,99.999924,0.0,0
81.390594,99.999924,0.0,0
81.390594,99.999924,0.0,0
81.390594,99.999924,0.0,0
81.390594,99.999924,0.0,0
81.390594,99.999924,0.0,0
81.390594,99.999924,0.0,0
81.390594,99.999924,0.0,0
81.390594,99.999924,0.0,0
81.390594,99.999924,0.0,0
81.390594,99.999924,0.0,0
81.390594,99.999924,0.0,0
81.390594,99.999924,0.0,0
81.390594,99.999924,0.0,0
81.390594,99.999924,0.0,0
81.390594,99.999924,0.0,0
81.390594,99.999924,0.0,0
81.390594,99.999924,0.0,0
81.390594,99.999924,0.0,0
81.390594,99.999924,0.0,0
81.390594,99.999924,0.0,0
81.390594,99.999924,0.0,0
81.390594,99.999924,0.0,0
81.390594,99.999924,0.0,0
81.390594,99.999924,0.0,0
81.390594,99.999924,0.0,0
81.390594,99.999924,0.0,0
81.390594,99.999924,0.0,0
81.390594,99.999924,0.0,0
81.390594,99.999924,0.0,0
81.390594,99.999924,0.0,0
81.390594,99.999924,0.0,0
81.390594,99.999924,0.0,0
81.390594,99.999924,0.0,0
81.390594,99.999924,1475.906982,50
81.390594,99.999924,0.0,0
81.390594,99.999924,0.0,0
81.390594,99.999924,0.0,0
81.390594,99.999924,0.0,0
81.390594,99.999924,0.0,0
81.390594,99.999924,0.0,0
81.390594,99.999924,0.0,0
81.390594,99.999924,0.0,0
81.390594,99.999924,0.0,0
81.390594,99.999924,0.0,0
81.390594,99.999924,0.0,0
81.390594,99.999924,0.0,0
81.390594,99.999924,757.784729,25
81.390594,99.999924,0.0,0
81.390594,99.999924,0.0,0
81.390594,99.999924,0.0,0
81.390594,99.999924,0.0,0
81.390594,99.999924,0.0,0
81.390594,99.999924,0.0,0
81.390594,99.999924,0.0,0
81.390594,99.999924,0.0,0
81.390594,99.999924,0.0,0
81.390594,99.999924,0.0,0
81.390594,99.999924,0.0,0
81.390594,99.999924,0.0,0
81.390594,99.999924,0.0,0
81.390594,99.999924,0.0,0
81.390594,99.999924,0.0,0
81.390594,99.999924,0.0,0
81.390594,99.999924,0.0,0
81.390594,99.999924,0.0,0
81.390594,99.999924,0.0,0
81.390594,99.999924,0.0,0
81.390594,99.999924,0.0,0
81.390594,99.999924,0.0,0
81.390594,99.999924,0.0,0
81.390594,99.999924,0.0,0
81.390594,99.999924,0.0,0
81.390594,99.999924,0.0,0
81.390594,99.999924,0.0,0
81.390594,99.999924,0.0,0
81.390594,99.999924,0.0,0
81.390594,99.999924,0.0,0
81.390594,99.999924,0.0,0
81.390594,99.999924,0.0,0
81.390594,99.999924,0.0,0
81.390594,99.999924,0.0,0
81.390594,99.999924,0.0,0
81.390594,99.999924,0.0,0
81.390594,99.999924,0.0,0
81.390594,99.999924,0.0,0
81.390594,99.999924,0.0,0
81.390594,99.999924,1437.695435,25
81.390594,99.999924,0.0,0
81.390594,99.999924,0.0,0
81.390594,99.999924,0.0,0
81.390594,99.999924,0.0,0
81.390594,99.999924,0.0,0
81.390594,99.999924,0.0,0
81.390594,99.999924,0.0,0
81.390594,99.999924,0.0,0
81.390594,99.999924,0.0,0
81.390594,99.999924,0.0,0
81.390594,99.999924,0.0,0
81.390594,99.999924,0.0,0
81.390594,99.999924,0.0,0
81.390594,99.999924,0.0,0
81.390594,99.999924,0.0,0
81.390594,99.999924,0.0,0
81.390594,99.999924,780.195618,25
81.390594,99.999924,0.0,0
81.390594,99.999924,0.0,0
81.390594,99.999924,0.0,0
81.390594,99.999924,0.0,0
81.390594,99.999924,0.0,0
81.390594,99.999924,0.0,0
81.390594,99.999924,0.0,0
81.390594,99.999924,0.0,0
81.390594,99.999924,0.0,0
81.390594,99.999924,0.0,0
81.390594,99.999924,0.0,0
81.390594,99.999924,0.0,0
81.390594,99.999924,0.0,0
81.390594,99.999924,0.0,0
81.390594,99.999924,0.0,0
81.390594,99.999924,712.561401,50
81.390594,99.999924,0.0,0
81.390594,99.999924,0.0,0
81.390594,99.999924,0.0,0
81.390594,99.999924,0.0,0
81.390594,99.999924,0.0,0
81.390594,99.999924,0.0,0
81.390594,99.999924,0.0,0
81.390594,99.999924,0.0,0
81.390594,99.999924,0.0,0
81.390594,99.999924,0.0,0
81.390594,99.999924,0.0,0
81.390594,99.999924,0.0,0
81.390594,99.999924,0.0,0
81.390594,99.999924,0.0,0
81.390594,99.999924,0.0,0
81.390594,99.999924,0.0,0
81.390594,99.999924,0.0,0
81.390594,99.999924,0.0,0
81.390594,99.999924,0.0,0
81.453148,99.999924,732.948975,100
81.512581,99.999924,0.0,0
81.569038,99.999924,0.0,0
81.622673,99.999924,0.0,0
81.67363,99.999924,0.0,0
81.722038,99.999924,0.0,0
81.768021,99.999924,0.0,0
81.811707,99.999924,0.0,0
81.85321,99.999924,0.0,0
81.892639,99.999924,0.0,0
81.930092,99.999924,0.0,0
81.965675,99.999924,0.0,0
81.999481,99.999924,0.0,0
82.031593,99.999924,0.0,0
82.062103,99.999924,0.0,0
82.091087,99.999924,0.0,0
82.118622,99.999924,0.0,0
82.21862,99.999924,671.649719,100
82.313622,99.999924,0.0,0
82.40387,99.999924,0.0,0
82.489609,99.999924,0.0,0
82.57106,99.999924,0.0,0
82.648438,99.999924,0.0,0
82.721947,99.999924,0.0,0
82.791779,99.999924,0.0,0
82.858124,99.999924,0.0,0
82.92115,99.999924,0.0,0
82.981026,99.999924,0.0,0
83.037903,99.999924,0.0,0
83.091942,99.999924,0.0,0
83.14328,99.999924,0.0,0
83.192047,99.999924,0.0,0
83.238373,99.999924,0.0,0
83.282387,99.999924,0.0,0
83.368309,99.999924,712.520081,100
83.449936,99.999924,0.0,0
83.527481,99.999924,0.0,0
83.601151,99.999924,0.0,0
83.671135,99.999924,0.0,0
83.737625,99.999924,0.0,0
83.800789,99.999924,0.0,0
83.860794,99.999924,0.0,0
83.917801,99.999924,0.0,0
83.971954,99.999924,0.0,0
84.023399,99.999924,0.0,0
84.072273,99.999924,0.0,0
84.118706,99.999924,0.0,0
84.162819,99.999924,0.0,0
84.20472,99.999924,0.0,0
84.24453,99.999924,0.0,0
84.302185,99.999924,691.356445,100
84.356949,99.999924,0.0,0
84.408981,99.999924,0.0,0
84.458405,99.999924,0.0,0
84.505356,99.999924,0.0,0
84.549973,99.999924,0.0,0
84.592346,99.999924,0.0,0
84.632599,99.999924,0.0,0
84.670853,99.999924,0.0,0
84.707184,99.999924,0.0,0
84.741699,99.999924,0.0,0
84.77449,99.999924,0.0,0
84.805649,99.999924,0.0,0
84.835251,99.999924,0.0,0
84.863373,99.999924,0.0,0
84.890076,99.999924,0.0,0
84.915451,99.999924,0.0,0
84.93956,99.999924,0.0,0
84.962463,99.999924,0.0,0
84.984222,99.999924,0.0,0
85.041145,99.999924,678.531128,100
85.095222,99.999924,0.0,0
85.146599,99.999924,0.0,0
85.195404,99.999924,0.0,0
85.241768,99.999924,0.0,0
85.285812,99.999924,0.0,0
85.32766,99.999924,0.0,0
85.367416,99.999924,0.0,0
85.405182,99.999924,0.0,0
85.441055,99.999924,0.0,0
85.475136,99.999924,0.0,0
85.507515,99.999924,0.0,0
85.538277,99.999924,0.0,0
85.567497,99.999924,0.0,0
85.595261,99.999924,0.0,0
85.621635,99.999924,0.0,0
85.679871,99.999924,704.398071,100
85.735191,99.999924,0.0,0
85.78775,99.999924,0.0,0
85.837677,99.999924,0.0,0
85.885109,99.999924,0.0,0
85.930168,99.999924,0.0,0
85.972977,99.999924,0.0,0
86.013641,99.999924,0.0,0
86.052277,99.999924,0.0,0
86.088982,99.999924,0.0,0
86.123848,99.999924,0.0,0
86.156975,99.999924,0.0,0
86.188446,99.999924,0.0,0
86.218338,99.999924,0.0,0
86.246735,99.999924,0.0,0
86.273712,99.999924,0.0,0
86.299339,99.999924,0.0,0
86.323692,99.999924,0.0,0
86.305786,99.999924,703.98938,100
86.288773,99.999924,0.0,0
86.272614,99.999924,0.0,0
86.257263,99.999924,0.0,0
86.242676,99.999924,0.0,0
86.228821,99.999924,0.0,0
86.21566,99.999924,0.0,0
86.203156,99.999924,0.0,0
86.191277,99.999924,0.0,0
86.179993,99.999924,0.0,0
86.169273,99.999924,0.0,0
86.159088,99.999924,0.0,0
86.149414,99.999924,0.0,0
86.140221,99.999924,0.0,0
86.131485,99.999924,0.0,0
86.123192,99.999924,0.0,0
86.123192,99.999924,721.020996,25
86.123192,99.999924,0.0,0
86.123192,99.999924,0.0,0
86.123192,99.999924,0.0,0
86.123192,99.999924,0.0,0
86.123192,99.999924,0.0,0
86.123192,99.999924,0.0,0
86.123192,99.999924,0.0,0
86.123192,99.999924,0.0,0
86.123192,99.999924,0.0,0
86.123192,99.999924,0.0,0
86.123192,99.999924,0.0,0
86.123192,99.999924,0.0,0
86.123192,99.999924,0.0,0
86.123192,99.999924,0.0,0
86.123192,99.999924,0.0,0
86.123192,99.999924,0.0,0
86.123192,99.999924,0.0,0
86.123192,99.999924,0.0,0
86.123192,99.999924,0.0,0
86.123192,99.999924,0.0,0
86.123192,99.999924,0.0,0
86.123192,99.999924,0.0,0
86.123192,99.999924,787.019531,50
86.123192,99.999924,0.0,0
86.123192,99.999924,0.0,0
86.123192,99.999924,0.0,0
86.123192,99.999924,0.0,0
86.123192,99.999924,0.0,0
86.123192,99.999924,0.0,0
86.123192,99.999924,0.0,0
86.123192,99.999924,0.0,0
86.123192,99.999924,0.0,0
86.123192,99.999924,0.0,0
86.123192,99.999924,0.0,0
86.123192,99.999924,0.0,0
86.123192,99.999924,0.0,0
86.123192,99.999924,0.0,0
86.123192,99.999924,0.0,0
86.123192,99.999924,0.0,0
86.123192,99.999924,0.0,0
86.023193,99.999924,752.782104,100
85.928192,99.999924,0.0,0
85.837944,99.999924,0.0,0
85.752205,99.999924,0.0,0
85.670753,99.999924,0.0,0
85.593376,99.999924,0.0,0
85.519867,99.999924,0.0,0
85.450035,99.999924,0.0,0
85.383698,99.999924,0.0,0
85.320671,99.999924,0.0,0
85.260796,99.999924,0.0,0
85.203918,99.999924,0.0,0
85.149879,99.999924,0.0,0
85.098549,99.999924,0.0,0
85.049782,99.999924,0.0,0
85.003456,99.999924,0.0,0
84.959442,99.999924,0.0,0
84.917633,99.999924,0.0,0
84.877914,99.999924,0.0,0
84.840179,99.999924,0.0,0
84.740173,99.999924,828.602051,100
84.645172,99.999924,0.0,0
84.554916,99.999924,0.0,0
84.469177,99.999924,0.0,0
84.387726,99.999924,0.0,0
84.310341,99.999924,0.0,0
84.236832,99.999924,0.0,0
84.166992,99.999924,0.0,0
84.100647,99.999924,0.0,0
84.037621,99.999924,0.0,0
83.977745,99.999924,0.0,0
83.92086,99.999924,0.0,0
83.866821,99.999924,0.0,0
83.815483,99.999924,0.0,0
83.766716,99.999924,0.0,0
83.720383,99.999924,0.0,0
83.676369,99.999924,0.0,0
83.634552,99.999924,0.0,0
83.534546,99.999924,735.766907,100
83.439545,99.999924,0.0,0
83.349289,99.999924,0.0,0
83.26355,99.999924,0.0,0
83.182098,99.999924,0.0,0
83.104721,99.999924,0.0,0
83.031212,99.999924,0.0,0
82.96138,99.999924,0.0,0
82.895035,99.999924,0.0,0
82.832008,99.999924,0.0,0
82.772133,99.999924,0.0,0
82.715248,99.999924,0.0,0
82.661209,99.999924,0.0,0
82.609871,99.999924,0.0,0
82.561104,99.999924,0.0,0
82.514771,99.999924,0.0,0
82.470757,99.999924,0.0,0
82.428947,99.999924,0.0,0
82.389229,99.999924,0.0,0
82.351494,99.999924,0.0,0
82.315643,99.999924,0.0,0
82.215645,99.999924,784.724426,100
82.120644,99.999924,0.0,0
82.030396,99.999924,0.0,0
81.944656,99.999924,0.0,0
81.863205,99.999924,0.0,0
81.785828,99.999924,0.0,0
81.712318,99.999924,0.0,0
81.642487,99.999924,0.0,0
81.576149,99.999924,0.0,0
81.513123,99.999924,0.0,0
81.453247,99.999924,0.0,0
81.39637,99.999924,0.0,0
81.342339,99.999924,0.0,0
81.291008,99.999924,0.0,0
81.242241,99.999924,0.0,0
81.195915,99.999924,0.0,0
81.151901,99.999924,0.0,0
81.110092,99.999924,0.0,0
81.070374,99.999924,0.0,0
81.032639,99.999924,0.0,0
80.932632,99.999924,808.796204,100
80.837631,99.999924,0.0,0
80.747375,99.999924,0.0,0
80.661636,99.999924,0.0,0
80.580185,99.999924,0.0,0
80.502808,99.999924,0.0,0
80.429298,99.999924,0.0,0
80.359459,99.999924,0.0,0
80.293114,99.999924,0.0,0
80.230087,99.999924,0.0,0
80.170212,99.999924,0.0,0
80.113327,99.999924,0.0,0
80.059288,99.999924,0.0,0
80.00795,99.999924,0.0,0
79.959183,99.999924,0.0,0
79.912849,99.999924,0.0,0
79.868835,99.999924,0.0,0
79.827019,99.999924,0.0,0
79.7873,99.999924,0.0,0
79.687302,99.999924,829.252136,100
79.5923,99.999924,0.0,0
79.502052,99.999924,0.0,0
79.416313,99.999924,0.0,0
79.334862,99.999924,0.0,0
79.257484,99.999924,0.0,0
79.183975,99.999924,0.0,0
79.114143,99.999924,0.0,0
79.047798,99.999924,0.0,0
78.984772,99.999924,0.0,0
78.924896,99.999924,0.0,0
78.868019,99.999924,0.0,0
78.81398,99.999924,0.0,0
78.76265,99.999924,0.0,0
78.713882,99.999924,0.0,0
78.667557,99.999924,0.0,0
78.623543,99.999924,0.0,0
78.581734,99.999924,0.0,0
78.542015,99.999924,0.0,0
78.50428,99.999924,0.0,0
78.46843,99.999924,0.0,0
78.389206,99.999924,751.186646,100
78.313942,99.999924,0.0,0
78.242447,99.999924,0.0,0
78.174522,99.999924,0.0,0
78.109993,99.999924,0.0,0
78.048691,99.999924,0.0,0
77.990456,99.999924,0.0,0
77.935135,99.999924,0.0,0
77.882576,99.999924,0.0,0
77.832649,99.999924,0.0,0
77.785217,99.999924,0.0,0
77.740158,99.999924,0.0,0
77.69735,99.999924,0.0,0
77.656685,99.999924,0.0,0
77.61805,99.999924,0.0,0
77.581345,99.999924,0.0,0
77.546478,99.999924,0.0,0
77.513351,99.999924,0.0,0
77.48188,99.999924,0.0,0
77.387398,99.999924,799.051208,100
77.297638,99.999924,0.0,0
77.212364,99.999924,0.0,0
77.131355,99.999924,0.0,0
77.054398,99.999924,0.0,0
76.981285,99.999924,0.0,0
76.911827,99.999924,0.0,0
76.845848,99.999924,0.0,0
76.783165,99.999924,0.0,0
76.723618,99.999924,0.0,0
76.667046,99.999924,0.0,0
76.613304,99.999924,0.0,0
76.562248,99.999924,0.0,0
76.513748,99.999924,0.0,0
76.467667,99.999924,0.0,0
76.423889,99.999924,0.0,0
76.382301,99.999924,0.0,0
76.342796,99.999924,0.0,0
76.305267,99.999924,771.359131,100
76.269615,99.999924,0.0,0
76.235741,99.999924,0.0,0
76.20356,99.999924,0.0,0
76.172989,99.999924,0.0,0
76.143951,99.999924,0.0,0
76.116364,99.999924,0.0,0
76.090157,99.999924,0.0,0
76.065254,99.999924,0.0,0
76.041603,99.999924,0.0,0
76.019135,99.999924,0.0,0
75.997787,99.999924,0.0,0
75.977509,99.999924,0.0,0
75.958244,99.999924,0.0,0
75.939941,99.999924,0.0,0
75.922554,99.999924,0.0,0
75.906036,99.999924,0.0,0
75.890343,99.999924,0.0,0
75.875435,99.999924,0.0,0
75.861275,99.999924,0.0,0
75.847816,99.999924,0.0,0
75.835037,99.999924,749.15686,100
75.822891,99.999924,0.0,0
75.811356,99.999924,0.0,0
75.8004,99.999924,0.0,0
75.789986,99.999924,0.0,0
75.780098,99.999924,0.0,0
75.770699,99.999924,0.0,0
75.761772,99.999924,0.0,0
75.753296,99.999924,0.0,0
75.745239,99.999924,0.0,0
75.737587,99.999924,0.0,0
75.730316,99.999924,0.0,0
75.723412,99.999924,0.0,0
75.71685,99.999924,0.0,0
75.710617,99.999924,0.0,0
75.704697,99.999924,0.0,0
75.699074,99.999924,0.0,0
75.693726,99.999924,738.452698,100
75.688644,99.999924,0.0,0
75.683823,99.999924,0.0,0
75.679237,99.999924,0.0,0
75.674881,99.999924,0.0,0
75.670746,99.999924,0.0,0
75.666817,99.999924,0.0,0
75.663086,99.999924,0.0,0
75.659538,99.999924,0.0,0
75.656174,99.999924,0.0,0
75.652977,99.999924,0.0,0
75.64994,99.999924,0.0,0
75.647049,99.999924,0.0,0
75.644302,99.999924,0.0,0
75.641693,99.999924,0.0,0
75.639214,99.999924,0.0,0
75.636864,99.999924,0.0,0
75.634628,99.999924,0.0,0
75.632507,99.999924,0.0,0
75.630493,99.999924,770.057617,100
75.628578,99.999924,0.0,0
75.626755,99.999924,0.0,0
75.625023,99.999924,0.0,0
75.623383,99.999924,0.0,0
75.621819,99.999924,0.0,0
75.620338,99.999924,0.0,0
75.618927,99.999924,0.0,0
75.617592,99.999924,0.0,0
75.616318,99.999924,0.0,0
75.615112,99.999924,0.0,0
75.613968,99.999924,0.0,0
75.612877,99.999924,0.0,0
75.611839,99.999924,0.0,0
75.610855,99.999924,0.0,0
75.609924,99.999924,0.0,0
75.609039,99.999924,0.0,0
75.608192,99.999924,0.0,0
75.607391,99.999924,0.0,0
75.606628,99.999924,762.889709,100
75.605904,99.999924,0.0,0
75.605217,99.999924,0.0,0
75.604568,99.999924,0.0,0
75.603951,99.999924,0.0,0
75.603363,99.999924,0.0,0
75.602806,99.999924,0.0,0
75.602272,99.999924,0.0,0
75.601768,99.999924,0.0,0
75.601288,99.999924,0.0,0
75.60083,99.999924,0.0,0
75.600395,99.999924,0.0,0
75.599983,99.999924,0.0,0
75.599594,99.999924,0.0,0
75.59922,99.999924,0.0,0
75.598869,99.999924,0.0,0
75.598534,99.999924,0.0,0
75.598213,99.999924,0.0,0
75.597908,99.999924,0.0,0
75.597618,99.999924,0.0,0
75.597343,99.999924,752.669128,100
75.597084,99.999924,0.0,0
75.59684,99.999924,0.0,0
75.596603,99.999924,0.0,0
75.596382,99.999924,0.0,0
75.596169,99.999924,0.0,0
75.59597,99.999924,0.0,0
75.595779,99.999924,0.0,0
75.595596,99.999924,0.0,0
75.595428,99.999924,0.0,0
75.595268,99.999924,0.0,0
75.595116,99.999924,0.0,0
75.594971,99.999924,0.0,0
75.594833,99.999924,0.0,0
75.594704,99.999924,0.0,0
75.594574,99.999924,0.0,0
75.594452,99.999924,0.0,0
75.594337,99.999924,0.0,0
75.594231,99.999924,0.0,0
75.594131,99.999924,0.0,0
75.594032,99.999924,807.966309,100
75.593941,99.999924,0.0,0
75.593849,99.999924,0.0,0
75.593765,99.999924,0.0,0
75.593689,99.999924,0.0,0
75.593613,99.999924,0.0,0
75.593544,99.999924,0.0,0
75.593475,99.999924,0.0,0
75.593407,99.999924,0.0,0
75.593346,99.999924,0.0,0
75.593285,99.999924,0.0,0
75.593231,99.999924,0.0,0
75.593178,99.999924,0.0,0
75.593124,99.999924,0.0,0
75.593079,99.999924,0.0,0
75.593033,99.999924,0.0,0
75.592987,99.999924,0.0,0
75.592949,99.999924,0.0,0
75.592911,99.999924,0.0,0
75.592873,99.999924,0.0,0
75.592834,99.999924,816.139038,100
75.592804,99.999924,0.0,0
75.592773,99.999924,0.0,0
75.592743,99.999924,0.0,0
75.592712,99.999924,0.0,0
75.592682,99.999924,0.0,0
75.592659,99.999924,0.0,0
75.592636,99.999924,0.0,0
75.592613,99.999924,0.0,0
75.59259,99.999924,0.0,0
75.592567,99.999924,0.0,0
75.592545,99.999924,0.0,0
75.592529,99.999924,0.0,0
75.592514,99.999924,0.0,0
75.592499,99.999924,0.0,0
75.592484,99.999924,0.0,0
75.592468,99.999924,0.0,0
75.592453,99.999924,0.0,0
75.592438,99.999924,0.0,0
75.592422,99.999924,0.0,0
75.592407,99.999924,785.517822,100
75.592392,99.999924,0.0,0
75.592384,99.999924,0.0,0
75.592377,99.999924,0.0,0
75.592369,99.999924,0.0,0
75.592361,99.999924,0.0,0
75.592354,99.999924,0.0,0
75.592346,99.999924,0.0,0
75.592339,99.999924,0.0,0
75.592331,99.999924,0.0,0
75.592323,99.999924,0.0,0
75.592316,99.999924,0.0,0
75.592308,99.999924,0.0,0
75.5923,99.999924,0.0,0
75.592293,99.999924,0.0,0
75.592285,99.999924,0.0,0
75.592278,99.999924,0.0,0
75.59227,99.999924,0.0,0
75.592262,99.999924,0.0,0
75.592255,99.999924,793.977051,100
75.592247,99.999924,0.0,0
75.592247,99.999924,0.0,0
75.592247,99.999924,0.0,0
75.592247,99.999924,0.0,0
75.592247,99.999924,0.0,0
75.592247,99.999924,0.0,0
75.592247,99.999924,0.0,0
75.592247,99.999924,0.0,0
75.592247,99.999924,0.0,0
75.592247,99.999924,0.0,0
75.592247,99.999924,0.0,0
75.592247,99.999924,0.0,0
75.592247,99.999924,0.0,0
75.592247,99.999924,0.0,0
75.592247,99.999924,0.0,0
75.592247,99.999924,0.0,0
75.592247,99.999924,0.0,0
75.592247,99.999924,0.0,0
75.592247,99.999924,771.371094,100
75.592247,99.999924,0.0,0
75.592247,99.999924,0.0,0
75.592247,99.999924,0.0,0
75.592247,99.999924,0.0,0
75.592247,99.999924,0.0,0
75.592247,99.999924,0.0,0
75.592247,99.999924,0.0,0
75.592247,99.999924,0.0,0
75.592247,99.999924,0.0,0
75.592247,99.999924,0.0,0
75.592247,99.999924,0.0,0
75.592247,99.999924,0.0,0
75.592247,99.999924,0.0,0
75.592247,99.999924,0.0,0
75.592247,99.999924,0.0,0
75.592247,99.999924,0.0,0
75.592247,99.999924,0.0,0
75.592247,99.999924,0.0,0
75.592247,99.999924,0.0,0
75.592247,99.999924,764.207092,100
75.592247,99.999924,0.0,0
75.592247,99.999924,0.0,0
75.592247,99.999924,0.0,0
75.592247,99.999924,0.0,0
75.592247,99.999924,0.0,0
75.592247,99.999924,0.0,0
75.592247,99.999924,0.0,0
75.592247,99.999924,0.0,0
75.592247,99.999924,0.0,0
75.592247,99.999924,0.0,0
75.592247,99.999924,0.0,0
75.592247,99.999924,0.0,0
75.592247,99.999924,0.0,0
75.592247,99.999924,0.0,0
75.592247,99.999924,0.0,0
75.592247,99.999924,0.0,0
75.592247,99.999924,0.0,0
75.592247,99.999924,713.963806,100
75.592247,99.999924,0.0,0
75.592247,99.999924,0.0,0
75.592247,99.999924,0.0,0
75.592247,99.999924,0.0,0
75.592247,99.999924,0.0,0
75.592247,99.999924,0.0,0
75.592247,99.999924,0.0,0
75.592247,99.999924,0.0,0
75.592247,99.999924,0.0,0
75.592247,99.999924,0.0,0
75.592247,99.999924,0.0,0
75.592247,99.999924,0.0,0
75.592247,99.999924,0.0,0
75.592247,99.999924,0.0,0
75.592247,99.999924,0.0,0
75.592247,99.999924,0.0,0
75.592247,99.999924,0.0,0
75.592247,99.999924,0.0,0
75.592247,99.999924,756.805603,100
75.592247,99.999924,0.0,0
75.592247,99.999924,0.0,0
75.592247,99.999924,0.0,0
75.592247,99.999924,0.0,0
75.592247,99.999924,0.0,0
75.592247,99.999924,0.0,0
75.592247,99.999924,0.0,0
75.592247,99.999924,0.0,0
75.592247,99.999924,0.0,0
75.592247,99.999924,0.0,0
