greenPpg,irPpg,wristTimeMSec
72923.79,821373.7,33157.42
77798.234,876598.2,33157.46
77722.734,876755.9,33157.5
77802.05,876943.3,33157.54
77790.21,877061.5,33157.582
77820.984,877405.6,33157.62
77808.625,877519.3,33157.66
77871.14,877566.25,33157.7
77830.08,877543.0,33157.74
77868.07,877736.75,33157.78
77887.69,877879.8,33157.82
77918.41,877900.44,33157.86
78008.016,877962.3,33157.9
78005.98,877970.06,33157.94
78011.17,878059.9,33157.98
78017.71,878079.0,33158.02
78005.7,877993.25,33158.06
77896.83,877875.6,33158.1
77907.11,877473.25,33158.14
77864.73,876554.5,33158.18
77831.67,875782.0,33158.22
77795.25,875238.56,33158.26
77803.51,875077.8,33158.3
77791.63,874752.4,33158.34
77781.0,874451.6,33158.38
77779.734,874190.75,33158.42
77764.5,873832.4,33158.46
77758.96,873611.1,33158.5
77775.83,873346.75,33158.54
77799.66,873264.75,33158.582
77821.96,873069.06,33158.62
77841.19,873027.0,33158.66
77857.38,872846.6,33158.7
77914.61,872814.44,33158.74
77907.484,872748.75,33158.78
77869.77,872722.0,33158.82
77830.516,872582.75,33158.86
77769.95,872226.1,33158.9
77712.84,871734.06,33158.94
77711.88,871412.7,33158.98
77697.56,871418.9,33159.02
77692.75,871626.7,33159.06
77694.945,871784.3,33159.1
77701.0,872075.75,33159.14
77685.74,872149.1,33159.18
77694.63,872314.0,33159.22
77733.35,872528.5,33159.26
77732.63,872892.75,33159.3
77741.766,873146.8,33159.34
77779.81,873383.0,33159.38
77816.44,873702.2,33159.42
77864.4,874107.2,33159.46
77840.086,874576.6,33159.5
77844.38,874932.75,33159.54
77774.445,875147.56,33159.582
77733.75,875084.4,33159.62
77678.945,875010.06,33159.66
77647.94,874925.75,33159.7
77661.18,874999.75,33159.74
77664.19,875227.2,33159.78
77679.31,875640.94,33159.82
77673.625,875948.6,33159.86
77659.94,876322.5,33159.9
77693.5,876539.56,33159.94
77714.79,876731.56,33159.98
77727.695,876941.2,33160.02
77749.01,877228.1,33160.06
77803.445,877453.94,33160.1
77845.62,877579.75,33160.14
77872.08,877884.2,33160.18
77923.75,878156.75,33160.22
77960.62,878452.25,33160.26
77944.94,878542.06,33160.3
77919.68,878351.94,33160.34
77866.11,877969.3,33160.38
77805.055,877260.75,33160.42
77767.96,876572.0,33160.46
77771.14,876198.06,33160.5
77743.266,876020.0,33160.54
77783.74,875936.9,33160.582
77783.695,875842.7,33160.62
77776.94,875727.1,33160.66
77796.42,875569.56,33160.7
77806.31,875318.9,33160.74
77810.266,875194.94,33160.78
77852.414,875147.0,33160.82
77877.7,875170.1,33160.86
77930.56,875286.3,33160.9
77942.58,875285.94,33160.94
78002.266,875372.5,33160.98
78027.38,875446.7,33161.02
78038.625,875396.4,33161.06
77995.68,875366.25,33161.1
77937.76,875144.8,33161.14
77897.586,874632.5,33161.18
77880.16,874279.9,33161.22
77900.164,874226.9,33161.26
77890.945,874293.8,33161.3
77935.734,874302.8,33161.34
77923.08,874506.44,33161.38
77924.19,874675.06,33161.42
77940.13,874789.0,33161.46
77966.65,874788.25,33161.5
78025.09,874925.9,33161.54
78014.125,875189.94,33161.582
78046.32,875472.25,33161.62
78117.68,875832.4,33161.66
78154.19,876364.6,33161.7
78147.414,876906.5,33161.74
78213.97,877450.2,33161.78
78186.38,877930.75,33161.82
78151.05,878137.75,33161.86
78107.22,877855.75,33161.9
78086.47,877460.1,33161.94
78049.99,877199.6,33161.98
78067.87,877161.1,33162.02
78081.055,877383.7,33162.06
78074.2,877674.4,33162.1
78132.79,877939.4,33162.14
78128.1,878118.5,33162.18
78150.87,878250.8,33162.22
78162.875,878408.0,33162.26
78188.31,878548.3,33162.3
78245.445,878691.56,33162.34
78272.25,878659.56,33162.38
78312.805,878663.94,33162.42
78336.22,878739.2,33162.46
78393.625,878661.8,33162.5
78434.875,878669.4,33162.54
78458.32,878616.6,33162.582
78474.83,878735.6,33162.62
78437.7,878573.6,33162.66
78407.75,878397.4,33162.7
78359.5,877703.9,33162.74
78325.58,877043.0,33162.78
78331.74,876593.1,33162.82
78347.36,876515.1,33162.86
78335.05,876564.06,33162.9
78333.45,876473.94,33162.94
78335.13,876437.9,33162.98
78353.69,876365.06,33163.02
78364.83,876226.75,33163.06
78382.625,876066.1,33163.1
78408.44,876146.7,33163.14
78445.62,876243.56,33163.18
78471.68,876363.2,33163.22
78506.195,876489.75,33163.26
78535.766,876611.94,33163.3
78573.13,876837.3,33163.34
78616.375,877060.56,33163.38
78599.26,877068.3,33163.42
78571.805,877300.5,33163.46
78504.27,877193.6,33163.5
78486.75,876695.6,33163.54
78487.75,876290.25,33163.582
78472.14,876280.9,33163.62
78478.56,876572.1,33163.66
78492.51,876460.25,33163.7
78506.445,876221.7,33163.74
78506.83,876130.9,33163.78
78520.055,876538.7,33163.82
78574.92,876839.6,33163.86
78566.32,877109.7,33163.9
78606.37,877568.56,33163.94
78635.46,877705.8,33163.98
78686.87,877613.3,33164.02
78735.42,877814.94,33164.06
78760.125,878495.9,33164.1
78781.96,879004.75,33164.14
78811.87,879395.0,33164.18
78767.74,879627.4,33164.22
78725.06,879702.2,33164.26
78694.1,879318.8,33164.3
78679.414,878856.56,33164.34
78640.25,878611.9,33164.38
78671.47,878649.06,33164.42
78660.95,878949.9,33164.46
78675.305,879281.25,33164.5
78676.484,879517.3,33164.54
78681.99,879627.94,33164.582
78718.234,879724.5,33164.62
78706.4,879655.5,33164.66
78740.01,879792.5,33164.7
78788.44,879960.1,33164.74
78813.58,880058.25,33164.78
78847.695,880209.7,33164.82
78907.98,880304.4,33164.86
78929.83,880435.6,33164.9
78974.11,880474.1,33164.94
78927.125,880498.4,33164.98
78903.25,880446.4,33165.02
78817.17,880093.9,33165.06
78801.625,879345.5,33165.1
78779.87,878792.06,33165.14
78778.09,878519.25,33165.18
78759.414,878527.4,33165.22
78794.164,878592.8,33165.26
78791.805,878564.25,33165.3
78780.13,878587.4,33165.34
78814.84,878418.6,33165.38
78810.305,878231.8,33165.42
78811.77,878190.6,33165.46
78863.09,878304.4,33165.5
78873.445,878433.9,33165.54
78961.64,878489.6,33165.582
78936.09,878518.0,33165.62
78975.69,878708.8,33165.66
78958.01,878788.4,33165.7
78936.805,878868.8,33165.74
78835.09,878847.7,33165.78
78820.46,878344.3,33165.82
78783.14,877936.5,33165.86
78805.8,877811.94,33165.9
78806.18,878008.25,33165.94
78786.46,878213.75,33165.98
78784.9,878522.1,33166.02
78788.37,878758.56,33166.06
78807.04,879044.75,33166.1
78828.01,879192.9,33166.14
78833.94,879450.1,33166.18
78854.83,879861.9,33166.22
78882.19,880239.44,33166.26
78902.945,880580.44,33166.3
78945.06,880986.4,33166.34
78959.05,881367.0,33166.38
78910.0,881457.6,33166.42
78835.65,881383.3,33166.46
78797.555,880975.25,33166.5
78737.68,880479.44,33166.54
78721.52,880198.7,33166.582
78718.055,880261.7,33166.62
78694.625,880430.0,33166.66
78721.055,880640.44,33166.7
78693.39,880794.1,33166.74
78700.01,881020.94,33166.78
78714.56,881102.6,33166.82
78729.55,881105.8,33166.86
78734.82,881141.44,33166.9
78765.25,881291.3,33166.94
78773.65,881328.4,33166.98
78793.88,881445.44,33167.02
78817.04,881498.6,33167.06
78802.77,881471.75,33167.1
78712.625,881166.06,33167.14
78636.77,880651.25,33167.18
78597.055,879952.56,33167.22
78557.0,879408.25,33167.26
78525.96,879088.3,33167.3
78517.195,879097.8,33167.34
78509.44,879012.3,33167.38
78510.125,879013.9,33167.42
78493.44,878943.5,33167.46
78515.734,878799.6,33167.5
78510.33,878667.0,33167.54
78526.06,878642.44,33167.582
78553.87,878758.94,33167.62
78554.625,878730.25,33167.66
78596.24,878775.44,33167.7
78607.39,878952.25,33167.74
78589.26,878854.1,33167.78
78527.945,878700.0,33167.82
78468.25,878385.5,33167.86
78432.51,877751.2,33167.9
78391.38,877349.25,33167.94
78401.625,877265.5,33167.98
78384.375,877400.1,33168.02
78365.414,877531.75,33168.06
78384.3,877709.06,33168.1
78370.32,877888.8,33168.14
78394.31,877888.8,33168.18
78421.05,877892.44,33168.22
78419.51,877919.9,33168.26
78438.82,878191.06,33168.3
78499.87,878439.2,33168.34
78523.91,878722.94,33168.38
78613.95,879085.06,33168.42
78558.33,879141.56,33168.46
78511.93,879260.7,33168.5
78448.79,879184.0,33168.54
78471.67,878843.94,33168.58
78402.41,878633.25,33168.62
78441.07,878746.06,33168.66
78462.04,878959.44,33168.7
78462.82,879204.1,33168.74
78479.24,879421.0,33168.78
78499.055,879700.0,33168.82
78477.33,879971.7,33168.86
78525.016,880126.1,33168.9
78601.72,880373.6,33168.94
78598.15,880672.06,33168.98
78688.03,880957.4,33169.02
78699.12,881257.1,33169.06
78732.37,881480.94,33169.1
78762.625,881615.1,33169.14
78737.586,881694.25,33169.18
78698.08,881717.4,33169.22
78687.02,881444.94,33169.26
78700.555,881071.3,33169.3
78695.9,880724.25,33169.34
78728.984,880764.0,33169.38
78740.43,881014.6,33169.42
78763.82,881098.56,33169.46
78782.234,881109.3,33169.5
78822.695,881093.7,33169.54
78855.15,881116.9,33169.58
78905.19,881098.2,33169.62
78940.45,881128.56,33169.66
78996.77,881165.75,33169.7
79041.81,881193.1,33169.74
79084.94,881352.4,33169.78
79151.11,881416.7,33169.82
79192.68,881495.5,33169.86
79182.63,881438.56,33169.9
79186.234,881420.94,33169.94
79163.19,881090.3,33169.98
79164.695,880564.25,33170.02
79185.76,880180.06,33170.06
79226.11,880310.5,33170.1
79249.45,880493.2,33170.14
79291.695,880602.56,33170.18
79324.37,880750.75,33170.22
79351.31,880986.0,33170.26
79378.695,881027.8,33170.3
79433.125,881043.7,33170.34
79475.12,881286.56,33170.38
79558.336,881578.4,33170.42
79586.33,881887.0,33170.46
79657.04,882042.1,33170.5
79725.36,882330.6,33170.54
79706.71,882600.75,33170.58
79693.88,883015.6,33170.62
79698.73,883167.7,33170.66
79717.375,883055.9,33170.7
79729.39,882918.06,33170.74
79767.87,882955.25,33170.78
79805.75,883173.8,33170.82
79837.64,883501.06,33170.86
79880.94,883782.4,33170.9
79926.06,884211.3,33170.94
79967.125,884583.2,33170.98
80002.375,884779.8,33171.02
80047.766,885063.9,33171.06
80101.38,885415.94,33171.1
80154.516,885697.06,33171.14
80211.56,885881.1,33171.18
80264.51,886192.7,33171.22
80318.87,886574.44,33171.26
80371.125,886769.4,33171.3
80384.88,886862.75,33171.34
80387.945,886976.1,33171.38
80409.8,886975.44,33171.42
80430.77,886605.7,33171.46
80400.38,886120.3,33171.5
80460.484,885862.8,33171.54
80484.99,885870.2,33171.58
80509.77,885925.0,33171.62
80551.32,885961.25,33171.66
80587.34,886100.7,33171.7
80633.87,886100.44,33171.74
80677.68,886078.75,33171.78
80728.875,885945.8,33171.82
80704.625,885932.06,33171.86
80804.76,885990.06,33171.9
80842.016,886071.5,33171.94
80926.34,886099.44,33171.98
80952.34,886198.44,33172.02
80970.33,886327.56,33172.06
80993.58,886334.75,33172.1
80979.445,886405.5,33172.14
80977.4,886463.9,33172.18
80997.17,886128.5,33172.22
81028.24,885908.94,33172.26
81056.82,885969.7,33172.3
81087.1,886223.0,33172.34
81109.93,886355.44,33172.38
81148.625,886640.0,33172.42
81161.06,886989.2,33172.46
81206.305,887215.5,33172.5
81233.88,887348.4,33172.54
81293.42,887654.5,33172.58
81327.3,888054.5,33172.62
81375.625,888387.94,33172.66
81416.74,888858.2,33172.7
81453.64,889382.94,33172.74
81497.92,889893.2,33172.78
81487.97,890256.44,33172.82
81491.445,890535.9,33172.86
81521.35,890704.0,33172.9
81517.38,890691.75,33172.94
81538.43,890601.3,33172.98
81561.51,890643.44,33173.02
81579.71,890919.1,33173.06
81629.57,891252.5,33173.1
81652.805,891538.9,33173.14
81661.14,891855.8,33173.18
81714.805,892148.0,33173.22
81729.586,892241.25,33173.26
81781.23,892373.1,33173.3
81815.82,892613.5,33173.34
81857.945,892750.06,33173.38
81882.03,892784.25,33173.42
81956.85,893041.94,33173.46
81973.11,893260.0,33173.5
82001.305,893402.56,33173.54
81985.7,893391.06,33173.58
82012.86,893563.0,33173.62
81993.56,893470.8,33173.66
81960.96,893231.1,33173.7
81975.15,892954.3,33173.74
82009.875,892988.06,33173.78
82020.336,893101.56,33173.82
82045.125,893141.7,33173.86
82063.24,893305.75,33173.9
82091.56,893482.5,33173.94
82111.266,893409.56,33173.98
82148.62,893266.75,33174.02
82151.33,893276.5,33174.06
82185.81,893260.0,33174.1
82219.055,893340.0,33174.14
82236.11,893417.6,33174.18
82269.445,893466.7,33174.22
82281.21,893580.56,33174.26
82291.125,893550.8,33174.3
82265.44,893560.44,33174.34
82242.195,893554.8,33174.38
82253.81,893336.9,33174.42
82261.305,892942.94,33174.46
82314.25,892884.75,33174.5
82256.19,892993.3,33174.54
82269.125,892984.25,33174.58
82278.19,892984.6,33174.62
82298.41,893014.06,33174.66
82367.164,893001.4,33174.7
82315.555,892975.4,33174.74
82344.56,893031.4,33174.78
82368.68,893150.5,33174.82
82390.7,893274.0,33174.86
82405.37,893398.3,33174.9
82423.19,893653.0,33174.94
82450.56,893856.1,33174.98
82399.76,893915.5,33175.02
82388.7,894005.6,33175.06
82337.41,893965.1,33175.1
82344.734,893726.2,33175.14
82324.14,893666.6,33175.18
82362.86,893730.6,33175.22
82360.67,893819.5,33175.26
82350.36,894065.3,33175.3
82327.22,894285.44,33175.34
82354.45,894433.7,33175.38
82386.85,894581.9,33175.418
82399.86,894577.0,33175.46
82396.01,894641.0,33175.5
82406.81,894460.3,33175.54
82431.17,894466.8,33175.58
82442.19,894860.8,33175.62
82458.75,895315.6,33175.66
82442.25,895640.2,33175.7
82399.266,896019.06,33175.74
82367.62,896204.1,33175.78
82309.76,896134.9,33175.82
82278.766,895875.7,33175.86
82256.44,895796.56,33175.9
82240.305,895890.6,33175.94
82217.125,896009.7,33175.98
82223.42,896176.8,33176.02
82201.43,896527.0,33176.06
82188.69,896648.2,33176.1
82132.65,896690.6,33176.14
82149.15,896587.25,33176.18
82142.266,896685.5,33176.22
82139.0,896788.06,33176.26
82151.32,897032.5,33176.3
82167.57,897118.5,33176.34
82152.61,897270.8,33176.38
82111.8,897225.1,33176.42
82052.35,897281.7,33176.46
81943.81,897149.6,33176.5
81871.266,896784.94,33176.54
81822.56,896531.3,33176.58
81766.02,896399.0,33176.62
81770.25,896251.56,33176.66
81708.086,895849.5,33176.7
81692.0,895744.4,33176.74
81672.125,895817.56,33176.78
81646.45,895768.94,33176.82
81625.75,895680.94,33176.86
81644.93,895579.8,33176.9
81620.08,895616.06,33176.94
81607.54,895174.44,33176.98
81614.27,894696.3,33177.02
81628.805,894815.7,33177.06
81583.35,894982.9,33177.1
81498.25,894975.6,33177.14
81409.055,895010.9,33177.18
81343.44,894544.44,33177.22
81269.266,894164.4,33177.26
81240.44,894055.2,33177.3
81208.24,894169.9,33177.34
81178.81,894266.9,33177.38
81154.44,894422.44,33177.42
81102.25,894264.0,33177.46
81082.29,894036.5,33177.5
81072.055,894036.2,33177.54
81071.21,894223.0,33177.58
81044.71,894361.4,33177.62
81071.94,894643.5,33177.66
81070.48,894988.06,33177.7
81050.69,895481.3,33177.74
80977.72,895701.5,33177.78
80931.44,895950.7,33177.82
80841.97,895931.1,33177.86
80754.17,895597.56,33177.9
80716.484,895555.1,33177.94
80690.875,895816.5,33177.98
80663.24,896069.94,33178.02
80634.586,896437.9,33178.06
80632.445,896926.56,33178.1
80552.39,897615.3,33178.14
80627.23,897836.5,33178.18
80626.11,897990.8,33178.22
80588.266,898246.25,33178.26
80632.49,898504.5,33178.3
80637.99,898743.06,33178.34
80646.555,898913.75,33178.38
80613.93,899131.75,33178.42
80551.01,899411.7,33178.46
80465.24,899540.4,33178.5
80352.96,899243.1,33178.54
80327.28,898953.0,33178.58
80272.25,898774.44,33178.62
80245.125,898929.06,33178.66
80219.305,899043.1,33178.7
80182.71,899129.44,33178.74
80189.36,899223.2,33178.78
80190.234,899263.56,33178.82
80147.016,899245.4,33178.86
80153.57,899169.44,33178.9
80145.766,899168.25,33178.94
80158.766,899318.2,33178.98
80168.336,899387.94,33179.02
80197.375,899524.3,33179.06
80163.64,899568.0,33179.1
80078.49,899578.8,33179.14
79999.94,899531.75,33179.18
79923.945,899128.6,33179.22
79872.81,898743.44,33179.26
79857.875,898503.0,33179.3
79850.18,898529.9,33179.34
79838.11,898579.1,33179.38
79811.805,898571.44,33179.418
79791.5,898585.5,33179.46
79765.4,898527.3,33179.5
79800.42,898370.2,33179.54
79789.9,898253.94,33179.58
79795.875,898204.56,33179.62
79829.43,898262.25,33179.66
79855.18,898397.1,33179.7
79842.55,898551.1,33179.74
79791.56,898521.7,33179.78
79714.37,898704.0,33179.82
79628.16,898523.56,33179.86
79610.484,898156.44,33179.9
79559.52,897885.2,33179.94
79573.234,897960.8,33179.98
79542.195,898165.25,33180.02
79558.19,898301.6,33180.06
79541.266,898520.56,33180.1
79556.81,898701.75,33180.14
79527.02,898695.6,33180.18
79541.13,898832.94,33180.22
79556.766,899088.4,33180.26
79594.56,899434.8,33180.3
79635.6,899672.44,33180.34
79583.28,900155.8,33180.38
79601.05,900578.56,33180.418
79504.07,900861.06,33180.46
79443.984,900809.1,33180.5
79405.22,900498.5,33180.54
79439.88,900378.6,33180.58
79370.51,900571.6,33180.62
79373.93,900918.06,33180.66
79359.37,901156.25,33180.7
79347.4,901437.6,33180.74
79411.01,901631.1,33180.78
79362.13,901835.75,33180.82
79384.766,901754.94,33180.86
79414.05,901867.2,33180.9
79420.14,902032.94,33180.94
79467.11,902271.75,33180.98
79466.26,902466.44,33181.02
79442.32,902756.2,33181.06
79368.49,902822.6,33181.1
79273.31,902671.44,33181.14
79183.266,902210.9,33181.18
79203.25,901876.6,33181.22
79199.81,901731.56,33181.26
79190.13,901873.75,33181.3
79179.625,901918.9,33181.34
79172.18,902084.44,33181.38
79169.86,902130.75,33181.418
79141.28,902133.5,33181.46
79187.43,901919.8,33181.5
79172.83,901878.9,33181.54
79192.52,902047.0,33181.58
79237.8,902120.06,33181.62
79277.11,902200.1,33181.66
79269.49,902353.44,33181.7
79194.81,902336.3,33181.74
79126.94,902218.2,33181.78
79059.64,901837.56,33181.82
79018.766,901367.0,33181.86
78996.586,900882.75,33181.9
78967.64,900717.0,33181.94
78971.94,900634.56,33181.98
78974.69,900578.94,33182.02
78974.25,900613.9,33182.06
78966.69,900557.2,33182.1
78952.03,900370.1,33182.14
78984.97,900244.75,33182.18
78981.445,900350.7,33182.22
79005.336,900429.2,33182.26
79045.13,900446.1,33182.3
79071.64,900566.5,33182.34
79073.44,900747.3,33182.38
79030.7,900772.4,33182.418
78962.016,900845.25,33182.46
78932.46,900475.0,33182.5
78898.67,900036.4,33182.54
78889.67,899861.4,33182.58
78887.24,900053.6,33182.62
78874.45,900188.44,33182.66
78875.945,900434.2,33182.7
78889.195,900775.7,33182.74
78918.555,901019.7,33182.78
78933.94,900968.4,33182.82
78943.42,901038.5,33182.86
78978.18,901234.3,33182.9
78998.555,901555.7,33182.94
79037.555,901861.44,33182.98
79087.18,902268.75,33183.02
79080.73,902443.56,33183.06
79033.19,902552.4,33183.1
78979.71,902561.7,33183.14
78951.39,902468.56,33183.18
78933.84,902350.8,33183.22
78943.14,902384.2,33183.26
78985.11,902624.06,33183.3
78996.26,902930.75,33183.34
79012.555,903210.0,33183.38
79035.58,903517.56,33183.418
79065.484,903689.25,33183.46
79101.125,903737.5,33183.5
79135.0,903846.06,33183.54
79165.63,904123.5,33183.58
79228.484,904353.1,33183.62
79255.586,904679.56,33183.66
79334.41,904980.7,33183.7
79336.64,905167.06,33183.74
79369.94,905287.6,33183.78
79345.234,905457.4,33183.82
79335.75,905397.75,33183.86
79328.125,905069.44,33183.9
79325.2,904867.44,33183.94
79327.234,904872.0,33183.98
79395.56,904995.0,33184.02
79446.03,905006.8,33184.06
79475.11,905082.3,33184.1
79505.31,905158.6,33184.14
79531.49,905060.0,33184.18
79567.14,904979.06,33184.22
79619.62,904933.3,33184.26
79691.234,904980.44,33184.3
79740.016,905041.25,33184.34
79783.96,905021.0,33184.38
79848.88,905051.25,33184.418
79891.625,905166.25,33184.46
79921.0,905032.2,33184.5
79911.5,905010.1,33184.54
79922.82,904938.8,33184.58
79942.766,904647.44,33184.62
79993.05,904340.2,33184.66
80024.92,904344.56,33184.7
80067.195,904481.5,33184.74
80120.734,904503.44,33184.78
80159.805,904626.8,33184.82
80206.984,904751.25,33184.86
80253.55,904678.75,33184.9
80310.14,904710.06,33184.94
80360.51,904803.75,33184.98
80391.7,905044.3,33185.02
80457.58,905049.56,33185.06
80513.766,905221.75,33185.1
80546.96,905605.94,33185.14
80626.03,905884.8,33185.18
80655.41,906238.56,33185.22
80642.2,906606.9,33185.26
80677.805,906718.7,33185.3
80707.06,906624.75,33185.34
80757.8,906732.75,33185.38
80799.13,907005.9,33185.418
80843.484,907259.56,33185.46
80875.06,907544.5,33185.5
80945.375,907810.75,33185.54
80983.25,908025.2,33185.58
81022.4,908119.9,33185.62
81089.5,908242.56,33185.66
81153.164,908440.7,33185.7
81193.8,908630.5,33185.74
81236.95,908841.75,33185.78
81325.984,909168.5,33185.82
81339.766,909465.1,33185.86
81363.2,909731.25,33185.9
81364.53,909937.5,33185.94
81425.164,910041.5,33185.98
81430.016,909912.0,33186.02
81445.12,909715.25,33186.06
81484.195,909760.1,33186.1
81538.055,910015.9,33186.14
81585.23,910202.7,33186.18
81599.19,910510.7,33186.22
81635.95,910631.75,33186.26
81702.74,910679.3,33186.3
81717.12,910618.1,33186.34
81752.59,910511.4,33186.38
81811.016,910488.1,33186.418
81872.12,910380.4,33186.46
81905.8,910397.4,33186.5
81942.82,910465.2,33186.54
81983.45,910455.94,33186.58
82004.24,910453.4,33186.62
82026.46,910302.9,33186.66
82042.836,910354.75,33186.7
82071.05,910315.2,33186.74
82089.29,909909.1,33186.78
82112.12,909495.1,33186.82
82120.63,909243.94,33186.86
82153.38,909158.3,33186.9
82177.11,908944.94,33186.94
82196.44,908715.3,33186.98
82224.875,908468.9,33187.02
82277.99,908187.1,33187.06
82304.25,907901.44,33187.1
82306.58,907735.3,33187.14
82350.375,907488.2,33187.18
82390.24,907032.1,33187.22
82426.484,906537.56,33187.26
82444.51,906127.94,33187.3
82482.05,905731.94,33187.34
82475.766,905423.8,33187.38
82475.38,905214.44,33187.418
82476.32,904899.25,33187.46
82463.22,904377.94,33187.5
82481.51,903973.3,33187.54
82491.31,903636.56,33187.58
82514.375,903381.25,33187.62
82520.35,903157.2,33187.66
82537.375,902888.3,33187.7
82584.734,902730.0,33187.74
82580.15,902524.0,33187.78
82613.58,902179.8,33187.82
82635.945,902012.7,33187.86
82636.75,901679.5,33187.9
82677.68,901297.94,33187.94
82696.61,901251.25,33187.98
82721.445,901277.0,33188.02
82707.07,901232.9,33188.06
82694.19,901347.0,33188.1
82681.945,901500.4,33188.14
82677.805,901225.56,33188.18
82655.06,900975.7,33188.22
82677.734,900941.4,33188.26
82657.14,901243.6,33188.3
82659.45,901424.7,33188.34
82678.695,901805.8,33188.38
82678.58,902564.4,33188.418
82694.31,902846.56,33188.46
82721.11,902759.4,33188.5
82705.82,902955.1,33188.54
82747.35,903251.25,33188.58
82774.734,903526.5,33188.62
82756.39,903867.5,33188.66
82785.33,904147.5,33188.7
82784.26,904614.94,33188.74
82725.95,905111.5,33188.78
82694.21,905469.4,33188.82
82678.18,905396.7,33188.86
82644.445,905277.75,33188.9
82624.2,905353.5,33188.94
82638.734,905674.25,33188.98
82619.37,905951.7,33189.02
82592.82,906177.94,33189.06
82613.9,906602.2,33189.1
82588.7,906850.0,33189.14
82597.266,906986.8,33189.18
82601.555,907176.5,33189.22
82587.51,907496.06,33189.26
82631.164,908001.4,33189.3
82647.62,908373.1,33189.34
82639.016,908642.7,33189.38
82631.89,908990.2,33189.418
82649.03,909482.9,33189.46
82684.664,910257.2,33189.5
82641.24,910755.7,33189.54
82583.125,911001.56,33189.58
82505.58,910991.56,33189.62
82485.445,910999.2,33189.66
82361.445,910998.8,33189.7
82343.56,911246.75,33189.74
82325.94,911557.7,33189.78
82302.805,911858.2,33189.82
82280.28,912248.4,33189.86
82261.87,912439.44,33189.9
82241.5,912544.06,33189.94
82201.695,912607.06,33189.98
82218.05,912941.7,33190.02
82190.875,913379.94,33190.06
82197.55,913675.0,33190.1
82207.29,913967.25,33190.14
82223.67,914288.94,33190.18
82227.32,914818.44,33190.22
82242.33,915188.75,33190.258
82207.625,915305.75,33190.3
82135.22,915600.56,33190.34
82084.81,915884.4,33190.38
82000.49,915977.94,33190.418
81922.625,915840.56,33190.46
81858.76,915644.6,33190.5
81836.05,915807.2,33190.54
81788.66,915883.4,33190.58
81774.44,915979.3,33190.62
81748.49,916251.75,33190.66
81701.15,916426.7,33190.7
81692.266,916500.2,33190.74
81681.76,916328.75,33190.78
81675.27,916260.9,33190.82
81683.58,916137.75,33190.86
81704.125,916126.4,33190.9
81700.69,915946.2,33190.94
81702.44,915693.44,33190.98
81714.94,915512.0,33191.02
81724.914,915429.75,33191.06
81748.375,915368.44,33191.1
81723.75,915362.2,33191.14
81638.016,915366.0,33191.18
81563.625,915362.9,33191.22
81484.93,915013.2,33191.258
81437.875,914506.94,33191.3
81392.586,914149.06,33191.34
81408.984,914007.8,33191.38
81362.77,913753.94,33191.418
81358.11,913519.5,33191.46
81336.57,913242.0,33191.5
81320.93,912926.94,33191.54
81328.04,912633.7,33191.58
81320.17,912374.56,33191.62
81340.55,912174.56,33191.66
81348.414,912007.7,33191.7
81362.25,911904.75,33191.74
81364.26,911599.6,33191.78
81402.59,911463.0,33191.82
81390.984,911407.8,33191.86
81362.75,911195.75,33191.9
81309.62,911358.0,33191.94
81236.51,911343.0,33191.98
81174.875,911058.25,33192.02
81139.31,910819.6,33192.06
81118.31,910787.25,33192.1
81115.375,910771.4,33192.14
81107.89,910865.0,33192.18
81100.85,910871.1,33192.22
81078.766,911011.7,33192.258
81079.76,911106.56,33192.3
81081.195,911417.75,33192.34
81083.71,911469.25,33192.38
81102.46,911617.4,33192.418
81123.69,911773.94,33192.46
81068.88,911849.1,33192.5
81183.56,911903.7,33192.54
81190.94,912009.75,33192.58
81161.01,912204.5,33192.62
81139.484,912634.56,33192.66
81089.84,912998.75,33192.7
81022.89,912865.4,33192.74
80984.88,912884.8,33192.78
80987.07,913088.8,33192.82
80995.14,913229.94,33192.86
80995.19,913176.44,33192.9
81008.13,913353.4,33192.94
80995.7,913497.1,33192.98
81008.26,913533.8,33193.02
81007.39,913610.3,33193.06
81046.61,913743.0,33193.1
81062.64,913785.8,33193.14
81080.62,913877.3,33193.18
81143.97,913932.3,33193.22
81134.61,914211.0,33193.258
81176.695,914473.56,33193.3
81161.62,914684.94,33193.34
81115.03,915102.56,33193.38
81068.49,915511.1,33193.418
81015.12,915713.3,33193.46
80977.016,915827.0,33193.5
80969.89,915860.4,33193.54
80972.74,916115.1,33193.58
80986.305,916392.2,33193.62
80983.42,916650.25,33193.66
81000.35,917076.4,33193.7
80996.74,917465.7,33193.74
81004.18,917605.1,33193.78
81018.31,917842.8,33193.82
81036.375,918113.4,33193.86
81080.94,918593.4,33193.9
81088.69,918861.3,33193.94
81138.74,919073.1,33193.98
81137.26,919120.6,33194.02
81158.836,919400.25,33194.06
81217.08,919610.44,33194.1
81188.125,919769.6,33194.14
81149.56,919911.8,33194.18
81103.945,919936.1,33194.22
81028.164,919849.25,33194.258
81007.9,919800.4,33194.3
80995.14,919974.3,33194.34
81004.69,920333.6,33194.38
81011.58,920610.25,33194.418
80999.0,920665.3,33194.46
81011.58,920720.7,33194.5
81034.61,920650.3,33194.54
81020.02,920652.9,33194.58
81045.25,920629.44,33194.62
81071.414,920735.6,33194.66
81089.31,921027.75,33194.7
81114.89,921236.0,33194.74
81156.26,921512.6,33194.78
81182.64,921567.2,33194.82
81222.305,921711.7,33194.86
81248.44,921778.75,33194.9
81246.79,921792.75,33194.94
81174.57,921976.8,33194.98
81120.836,922279.4,33195.02
81098.06,922481.94,33195.06
81072.32,922395.1,33195.1
81078.39,922456.75,33195.14
81079.36,922504.1,33195.18
81071.4,922338.56,33195.22
81071.875,922112.4,33195.258
81077.805,922071.94,33195.3
81086.11,922036.2,33195.34
81097.06,921767.1,33195.38
81089.07,921474.8,33195.418
81118.086,921261.56,33195.46
81128.13,921093.44,33195.5
81155.56,920709.9,33195.54
81173.055,920467.8,33195.58
81194.56,920246.6,33195.62
81221.37,920140.0,33195.66
81243.695,920129.75,33195.7
81267.93,920097.44,33195.74
81240.62,919917.8,33195.78
81192.18,919918.9,33195.82
81136.19,919775.6,33195.86
81099.46,919360.8,33195.9
81075.53,918909.75,33195.94
81089.72,918573.6,33195.98
81071.63,918316.9,33196.02
81080.24,918125.5,33196.06
81067.12,917878.2,33196.1
81037.91,917686.2,33196.14
81074.734,917351.06,33196.18
81082.945,917738.9,33196.22
81071.95,918792.5,33196.258
81140.37,919031.6,33196.3
81103.02,917164.56,33196.34
81130.44,917726.06,33196.38
81143.63,918431.0,33196.418
81164.94,918359.6,33196.46
81137.766,918769.5,33196.5
81130.625,919255.7,33196.54
81069.445,919501.25,33196.58
81020.88,919139.1,33196.62
80996.375,918790.8,33196.66
80981.12,918664.0,33196.7
80977.83,918631.25,33196.74
80980.18,918671.0,33196.78
80943.39,918658.1,33196.82
80933.586,918703.1,33196.86
80949.445,918404.06,33196.9
80954.94,918137.5,33196.94
80960.06,918077.75,33196.98
80976.984,918198.0,33197.02
81004.18,918221.7,33197.06
81013.19,918072.8,33197.1
81021.5,918112.8,33197.14
81022.45,918253.9,33197.18
81035.24,918346.44,33197.22
80968.96,918275.56,33197.258
80895.516,918412.75,33197.3
80840.5,918452.44,33197.34
80777.49,918103.44,33197.38
80724.555,917984.06,33197.418
80696.32,917762.4,33197.46
80721.6,917907.75,33197.5
80683.234,918003.2,33197.54
80648.586,918101.5,33197.58
80659.04,918266.06,33197.62
80642.75,918354.75,33197.66
80635.07,918273.06,33197.7
80597.66,918322.25,33197.74
80602.766,918723.4,33197.78
80645.42,919021.3,33197.82
80677.68,919387.9,33197.86
80695.125,919637.8,33197.9
80707.555,919989.25,33197.94
80745.99,920491.0,33197.98
80742.8,920836.9,33198.02
80676.75,921128.25,33198.06
80581.8,921386.44,33198.1
80483.56,921553.94,33198.14
80411.63,921693.1,33198.18
80348.984,921753.7,33198.22
80298.89,921777.4,33198.258
80267.08,921857.44,33198.3
80257.31,921892.4,33198.34
80219.24,921894.9,33198.38
80188.82,921936.8,33198.418
80173.625,921919.44,33198.46
80129.51,921792.2,33198.5
80142.33,921725.0,33198.54
80136.78,921721.6,33198.58
80154.26,921854.94,33198.62
80153.93,922017.44,33198.66
80159.81,922036.7,33198.7
80203.6,922022.5,33198.74
80198.38,922003.25,33198.78
80210.2,921898.9,33198.82
80200.234,921826.7,33198.86
80108.69,921610.9,33198.9
79990.42,921412.7,33198.94
79899.97,921317.4,33198.98
79803.195,921047.5,33199.02
79725.63,920189.1,33199.06
79697.52,919714.44,33199.1
79672.63,919813.06,33199.14
79630.945,920080.7,33199.18
79608.625,920093.8,33199.22
79603.414,919864.9,33199.258
79565.375,919727.8,33199.3
79546.055,919351.0,33199.34
79527.19,919132.75,33199.38
79538.266,918322.7,33199.418
79551.39,918322.2,33199.46
79539.516,918458.7,33199.5
79557.57,918382.1,33199.54
79576.07,918212.0,33199.58
79596.26,918084.56,33199.62
79619.86,917581.75,33199.66
79614.85,917787.6,33199.7
79562.31,917839.9,33199.74
79491.66,918313.1,33199.78
79387.25,918317.9,33199.82
79301.266,918237.8,33199.86
79268.89,918343.8,33199.9
79254.92,918040.1,33199.94
79233.09,917461.06,33199.98
79173.46,916853.4,33200.02
79175.04,916987.25,33200.06
79149.305,917152.2,33200.1
79118.19,917305.9,33200.14
79134.234,917007.2,33200.18
79119.26,916493.94,33200.22
79102.64,915815.56,33200.258
79111.086,916048.0,33200.3
79157.266,916252.44,33200.34
79183.766,915786.06,33200.38
79211.57,916277.7,33200.418
79236.89,917190.4,33200.46
79282.22,917262.8,33200.5
79234.99,917322.25,33200.54
79111.195,916932.94,33200.58
79009.01,916820.25,33200.62
78952.95,916735.06,33200.66
78885.555,916278.94,33200.7
78866.32,916235.7,33200.74
78860.92,916171.6,33200.78
78814.07,916267.94,33200.82
78812.945,916316.06,33200.86
78779.64,916234.3,33200.9
78800.11,916600.94,33200.94
78794.89,917032.8,33200.98
78804.76,917179.1,33201.02
78826.016,917125.94,33201.06
78871.67,917232.44,33201.1
78880.484,917287.4,33201.14
78914.13,917473.4,33201.18
78941.76,917746.44,33201.22
78987.94,917846.06,33201.258
78996.94,917794.6,33201.3
78976.195,917851.5,33201.34
78863.766,917951.6,33201.38
78766.25,917963.06,33201.418
78680.93,917910.0,33201.46
78595.01,917405.75,33201.5
78553.24,916779.56,33201.54
78516.01,916644.06,33201.58
78503.766,916814.94,33201.62
78492.875,916827.2,33201.66
78475.86,917039.6,33201.7
78441.37,917024.3,33201.74
78417.26,916787.0,33201.78
78453.55,916856.94,33201.82
78454.17,916749.06,33201.86
78471.75,916554.75,33201.9
78488.5,916451.06,33201.94
78517.75,916526.25,33201.98
78558.55,916593.8,33202.02
78567.94,916582.0,33202.06
78631.75,916743.44,33202.098
78652.055,916819.3,33202.14
78622.555,916754.2,33202.18
78531.67,916834.1,33202.22
78383.445,916839.2,33202.258
78272.45,916684.06,33202.3
78187.57,916303.44,33202.34
78154.62,916182.7,33202.38
78117.81,916134.1,33202.418
78079.95,916101.4,33202.46
78074.69,916132.4,33202.5
78046.31,916199.44,33202.54
78035.33,916218.56,33202.58
78030.5,916195.75,33202.62
78058.36,916064.8,33202.66
78042.95,915883.8,33202.7
78071.89,915881.5,33202.74
78121.24,915726.8,33202.78
78145.88,915569.75,33202.82
78168.445,915213.6,33202.86
78218.67,915076.3,33202.9
78262.37,914988.2,33202.94
78266.695,914967.75,33202.98
78205.195,914891.6,33203.02
78089.88,914650.25,33203.06
77971.945,914363.75,33203.098
77890.18,913803.4,33203.14
77843.32,913229.5,33203.18
77813.016,912895.9,33203.22
77806.984,912808.2,33203.258
77805.375,912678.2,33203.3
77761.76,912559.75,33203.34
77765.92,912350.8,33203.38
77753.38,912007.9,33203.418
77755.18,911676.7,33203.46
77768.25,911557.5,33203.5
77790.76,911551.9,33203.54
77832.69,911547.1,33203.58
77879.055,911500.4,33203.62
77886.38,911418.1,33203.66
77951.055,911447.75,33203.7
77991.7,911769.0,33203.74
77985.47,911717.9,33203.78
77851.28,911535.56,33203.82
77748.23,911327.4,33203.86
77681.17,910727.3,33203.9
77588.58,910117.94,33203.94
77585.055,909742.8,33203.98
77573.01,909594.9,33204.02
77567.38,909473.1,33204.06
77560.75,909399.9,33204.098
77534.49,909296.94,33204.14
77542.17,909093.9,33204.18
77540.89,908978.2,33204.22
77581.484,908970.4,33204.258
77604.33,909137.4,33204.3
77638.375,909178.44,33204.34
77683.44,909355.25,33204.38
77751.71,909424.8,33204.418
77778.84,909668.7,33204.46
77799.805,909837.9,33204.5
77733.12,909891.5,33204.54
77613.38,910059.3,33204.58
77482.836,909850.8,33204.62
77410.7,909404.94,33204.66
77357.016,909132.8,33204.7
77334.08,909164.75,33204.74
77362.35,909313.1,33204.78
77329.15,909474.44,33204.82
77330.055,909655.3,33204.86
77341.98,909846.94,33204.9
77326.08,909909.6,33204.94
77361.984,909942.8,33204.98
77357.65,909938.06,33205.02
77429.61,910168.8,33205.06
77463.56,910475.6,33205.098
77516.164,910782.25,33205.14
77561.19,911171.9,33205.18
77609.69,911478.4,33205.22
77649.266,912004.2,33205.258
77696.42,912424.5,33205.3
77613.805,912709.6,33205.34
77484.62,912634.7,33205.38
77329.35,912452.56,33205.418
77243.13,912192.3,33205.46
77183.33,911789.56,33205.5
77167.984,911580.7,33205.54
77145.57,911467.1,33205.58
77137.445,911399.8,33205.62
77117.695,911615.44,33205.66
77101.64,911903.7,33205.7
77123.63,912062.0,33205.74
77149.555,911987.9,33205.78
77170.26,911984.44,33205.82
77225.75,912089.44,33205.86
77254.125,912333.94,33205.9
77314.18,912708.94,33205.94
77363.31,912889.7,33205.98
77432.43,913139.5,33206.02
77504.75,913308.25,33206.06
77555.69,913533.7,33206.098
77564.766,913627.5,33206.14
77492.44,913451.8,33206.18
77384.12,913234.0,33206.22
77284.875,912994.6,33206.258
77229.305,912583.2,33206.3
77175.625,912216.4,33206.34
77133.72,912119.06,33206.38
77185.73,912206.25,33206.418
77176.68,912151.56,33206.46
77189.24,912238.25,33206.5
77204.18,912262.0,33206.54
77208.91,912449.75,33206.58
77268.49,912453.4,33206.62
77320.914,912496.94,33206.66
77351.58,912674.2,33206.7
77434.74,912780.3,33206.74
77474.44,912957.44,33206.78
77528.39,913243.1,33206.82
77626.984,913494.4,33206.86
77701.61,913815.0,33206.9
77767.43,914166.56,33206.94
77836.44,914480.5,33206.98
77857.586,914623.75,33207.02
77811.75,914559.75,33207.06
77717.28,914505.25,33207.098
77684.56,914381.2,33207.14
77630.65,914147.56,33207.18
77657.445,913924.2,33207.22
77684.234,913920.25,33207.258
77697.59,913982.25,33207.3
77733.055,913980.3,33207.34
77733.586,914010.0,33207.38
77779.75,914119.9,33207.418
77769.51,914187.2,33207.46
77875.555,914003.0,33207.5
77933.13,913951.44,33207.54
77976.66,913964.25,33207.58
78036.36,913964.6,33207.62
78119.484,913924.9,33207.66
78192.48,914019.3,33207.7
78276.19,914147.6,33207.74
78334.695,914152.0,33207.78
78433.93,914096.75,33207.82
78441.055,914035.25,33207.86
78520.875,913995.4,33207.9
78457.195,913856.4,33207.94
78448.29,913782.44,33207.98
78391.1,913345.6,33208.02
78323.01,912247.44,33208.06
78406.48,911670.7,33208.098
78453.08,911062.0,33208.14
78472.49,910286.25,33208.18
78472.336,909670.4,33208.22
78511.94,909240.7,33208.258
78539.18,908715.5,33208.3
78556.375,908086.5,33208.34
78582.766,907592.8,33208.38
78643.914,906420.1,33208.418
78673.36,905286.06,33208.46
78703.81,903678.2,33208.5
78725.51,902904.9,33208.54
78778.555,902239.8,33208.58
78811.38,901910.8,33208.62
78856.56,902225.2,33208.66
78902.93,902082.3,33208.7
78888.44,902043.44,33208.74
78846.75,902844.56,33208.78
78834.79,903936.0,33208.82
78808.81,904353.7,33208.86
78840.2,904965.6,33208.9
78875.914,905993.9,33208.94
78939.766,907033.4,33208.98
78988.72,907732.4,33209.02
79047.86,908432.0,33209.06
79067.445,909038.5,33209.098
79140.305,909730.2,33209.14
79181.95,910145.0,33209.18
79243.57,910405.56,33209.22
79329.484,910397.1,33209.258
79385.125,909975.7,33209.3
79443.25,909835.3,33209.34
79502.87,909970.8,33209.38
79567.25,909947.2,33209.418
79614.29,909734.9,33209.46
79690.36,909064.6,33209.5
79707.62,908618.5,33209.54
79677.06,908109.7,33209.58
79611.125,907711.56,33209.62
79580.49,906863.4,33209.66
79561.19,905628.0,33209.7
79547.94,904967.2,33209.74
79588.625,904749.44,33209.78
79603.08,904771.75,33209.82
79622.57,905129.44,33209.86
79649.5,905687.1,33209.9
79682.805,906116.8,33209.94
79726.31,907028.44,33209.98
79764.26,907797.25,33210.02
79826.3,908370.7,33210.06
79868.37,908829.4,33210.098
79898.016,909051.0,33210.14
79967.26,909395.6,33210.18
80006.71,910019.8,33210.22
80074.67,910701.75,33210.258
80139.98,911380.1,33210.3
80199.87,911968.25,33210.34
80244.38,912546.25,33210.38
80240.11,913031.4,33210.418
80170.875,913566.1,33210.46
80125.44,914019.6,33210.5
80096.37,914233.6,33210.54
80085.875,914431.6,33210.58
80072.33,914794.25,33210.62
80087.09,915310.94,33210.66
80123.734,915608.5,33210.7
80133.51,915820.94,33210.74
80137.02,915996.75,33210.78
80184.83,916136.5,33210.82
80240.04,916182.2,33210.86
80266.58,916042.94,33210.9
80309.44,916076.8,33210.938
80374.945,916153.56,33210.98
80449.58,916598.4,33211.02
80564.74,918789.9,33211.06
80653.22,919398.5,33211.098
80683.02,918706.44,33211.14
80739.32,918607.9,33211.18
80816.76,918727.44,33211.22
80838.234,918813.44,33211.258
80771.055,918939.9,33211.3
80711.28,919028.7,33211.34
80704.63,919057.8,33211.38
80672.64,918604.1,33211.418
80684.766,918272.0,33211.46
80711.68,918412.56,33211.5
80722.08,918585.0,33211.54
80741.37,918710.1,33211.58
80756.125,918821.8,33211.62
80763.016,918976.5,33211.66
80809.11,919054.3,33211.7
80856.484,919181.25,33211.74
80896.984,919396.44,33211.78
80930.24,919723.25,33211.82
80966.62,920029.5,33211.86
81022.13,920311.0,33211.9
81090.8,920607.5,33211.94
81118.945,920987.06,33211.98
81163.07,921441.9,33212.02
81246.44,921742.5,33212.06
81247.75,922081.44,33212.098
81227.984,922160.1,33212.14
81146.69,922332.7,33212.18
81076.84,922278.5,33212.22
81067.93,922109.0,33212.258
81056.17,922013.0,33212.3
81045.36,922065.44,33212.34
81059.234,922217.5,33212.38
81042.76,922354.0,33212.418
81041.07,922555.06,33212.46
81053.44,922690.25,33212.5
81077.195,922846.44,33212.54
81096.69,922984.5,33212.58
81128.62,923112.8,33212.62
81151.95,923302.5,33212.66
81198.19,923539.4,33212.7
81248.055,923764.75,33212.74
81281.39,923976.75,33212.78
81314.74,924094.0,33212.82
81402.23,924256.75,33212.86
81421.44,924364.6,33212.9
81473.75,924509.56,33212.938
81458.89,924480.75,33212.98
81402.13,924303.1,33213.02
81345.125,924204.2,33213.06
81297.58,923958.6,33213.098
81288.69,923642.94,33213.14
81274.74,923429.9,33213.18
81289.06,923460.6,33213.22
81295.38,923461.5,33213.258
81338.4,923449.94,33213.3
81309.94,923515.75,33213.34
81314.945,923495.1,33213.38
81344.875,923392.0,33213.418
81363.93,923378.75,33213.46
81389.2,923404.94,33213.5
81426.75,923476.9,33213.54
81457.336,923502.5,33213.58
81531.79,923526.8,33213.62
81574.76,923570.5,33213.66
81604.08,923529.94,33213.7
81654.56,923491.06,33213.74
81703.0,923587.6,33213.78
81719.82,923666.2,33213.82
81700.66,923494.5,33213.86
81644.82,923407.44,33213.9
81604.56,923277.75,33213.938
81597.06,923023.0,33213.98
81619.625,922820.1,33214.02
81617.625,922824.44,33214.06
81650.75,922903.6,33214.098
81677.29,922988.6,33214.14
81682.07,923172.06,33214.18
81678.83,923373.0,33214.22
81722.06,923523.9,33214.258
81740.38,923656.1,33214.3
81784.83,923831.25,33214.34
81840.42,924075.2,33214.38
81873.39,924401.3,33214.418
81903.64,924670.06,33214.46
81965.875,924956.75,33214.5
81992.055,925159.4,33214.54
82051.875,925480.0,33214.58
82120.0,925767.6,33214.62
82103.336,925955.3,33214.66
82063.95,925978.94,33214.7
82009.9,926027.06,33214.74
82005.5,925944.4,33214.78
81995.5,925803.5,33214.82
81994.24,925806.7,33214.86
82001.13,925854.25,33214.9
82014.266,926034.6,33214.938
82054.36,926163.75,33214.98
82043.76,926336.25,33215.02
82058.695,926412.3,33215.06
82103.38,926471.3,33215.098
82117.44,926465.0,33215.14
82169.945,926627.06,33215.18
82191.76,926762.2,33215.22
82243.805,926863.2,33215.258
82286.875,926918.3,33215.3
82347.09,926998.6,33215.34
82356.52,927088.7,33215.38
82414.51,927117.0,33215.418
82454.91,927232.25,33215.46
82475.52,927332.75,33215.5
82468.55,927238.1,33215.54
82419.44,927123.94,33215.58
82395.61,926889.75,33215.62
82389.94,926518.7,33215.66
82387.0,926280.6,33215.7
82407.055,926171.6,33215.74
82401.9,926217.25,33215.78
82429.37,926182.5,33215.82
82443.84,926232.1,33215.86
82459.5,926236.25,33215.9
82481.805,926246.1,33215.938
82522.164,926111.94,33215.98
82552.39,926117.9,33216.02
82574.07,926185.9,33216.06
82597.31,926270.75,33216.098
82625.95,926346.5,33216.14
82687.23,926471.0,33216.18
82700.086,926556.44,33216.22
82772.18,926614.4,33216.258
82801.016,926823.6,33216.3
82827.41,926900.06,33216.34
82792.67,926820.56,33216.38
82741.2,926794.94,33216.418
82729.68,926505.8,33216.46
82700.78,926251.9,33216.5
82723.695,926112.2,33216.54
82725.336,926191.56,33216.58
82746.33,926255.8,33216.62
82792.84,926360.06,33216.66
82791.69,926560.8,33216.7
82803.43,926631.9,33216.74
82847.234,926691.25,33216.78
82847.31,926744.3,33216.82
82877.875,927036.56,33216.86
82957.79,927359.75,33216.9
82953.76,927680.9,33216.938
83000.18,927948.2,33216.98
83055.86,928233.6,33217.02
83085.32,928436.06,33217.06
83118.63,928619.94,33217.098
83161.44,928891.44,33217.14
83155.68,929006.94,33217.18
83114.13,929100.2,33217.22
83056.69,929033.44,33217.258
83035.99,928960.94,33217.3
82982.086,928786.5,33217.34
82996.54,928717.5,33217.38
82992.664,928784.3,33217.418
82983.26,928883.2,33217.46
82994.125,929042.06,33217.5
82994.44,929116.56,33217.54
82977.945,929268.6,33217.58
83011.734,929263.06,33217.62
83011.71,929322.56,33217.66
83045.305,929445.9,33217.7
83036.82,929641.0,33217.74
83071.44,929761.56,33217.78
83122.72,929902.7,33217.82
83125.625,929994.25,33217.86
83164.31,930112.06,33217.9
83199.43,930167.25,33217.938
83210.516,930247.0,33217.98
83261.85,930330.3,33218.02
83192.08,930263.8,33218.06
83109.64,930134.56,33218.098
83035.695,929925.56,33218.14
82981.56,929587.25,33218.18
82933.7,929321.4,33218.22
82918.56,929210.44,33218.258
82894.55,929223.94,33218.3
82868.07,929189.06,33218.34
82850.86,929201.4,33218.38
82820.77,929202.4,33218.418
82822.445,929128.25,33218.46
82818.484,928988.7,33218.5
82804.875,928891.5,33218.54
82816.0,928905.06,33218.58
82824.99,928996.06,33218.62
82846.61,929023.06,33218.66
82857.1,929075.75,33218.7
82865.445,929140.75,33218.74
82875.26,929166.3,33218.78
82899.555,929220.0,33218.82
82924.17,929336.25,33218.86
82946.664,929409.94,33218.9
82865.27,929325.56,33218.938
82782.07,929199.2,33218.98
82727.17,928946.0,33219.02
82664.82,928522.3,33219.06
82606.86,928252.25,33219.098
82586.58,928199.4,33219.14
82566.055,928232.25,33219.18
82542.625,928178.1,33219.22
82531.93,928226.44,33219.258
82508.18,928227.2,33219.3
82508.37,928229.9,33219.34
82498.87,928240.5,33219.38
82498.74,928433.56,33219.418
82483.07,928597.94,33219.46
82513.81,928852.56,33219.5
82522.08,928994.5,33219.54
82558.37,929165.44,33219.58
82559.945,929259.3,33219.62
82582.07,929396.1,33219.66
82621.945,929537.44,33219.7
82622.375,929812.6,33219.74
82585.2,929912.75,33219.78
82488.44,929990.6,33219.82
82413.69,929881.2,33219.86
82323.586,929706.75,33219.9
82286.83,929572.8,33219.938
82262.38,929613.25,33219.98
82250.87,929746.5,33220.02
82224.37,929915.5,33220.06
82193.57,930076.94,33220.098
82175.19,930168.06,33220.14
82166.05,930284.75,33220.18
82189.59,930314.3,33220.22
82192.74,930447.94,33220.258
82183.44,930617.8,33220.3
82210.94,930827.7,33220.34
82213.15,930996.9,33220.38
82250.55,931171.2,33220.418
82283.87,931326.44,33220.46
82297.086,931483.56,33220.5
82345.54,931664.56,33220.54
82381.125,931831.9,33220.58
82389.375,932023.5,33220.62
82321.26,932041.1,33220.66
82267.79,931915.56,33220.7
82149.28,931788.0,33220.74
82097.07,931455.9,33220.78
82059.54,931228.94,33220.82
82004.99,931197.06,33220.86
81975.32,931214.44,33220.9
81964.63,931197.94,33220.938
81942.33,931164.0,33220.98
81944.05,931160.44,33221.02
81937.99,931190.8,33221.06
81911.26,931192.2,33221.098
81936.2,931256.5,33221.14
81950.38,931359.5,33221.18
81979.19,931421.06,33221.22
82004.11,931457.5,33221.258
82014.9,931489.25,33221.3
82042.45,931533.2,33221.34
82067.016,931554.6,33221.38
82126.56,931622.6,33221.418
82157.68,931677.1,33221.46
82173.64,931774.2,33221.5
82137.25,931664.9,33221.54
82056.57,931569.1,33221.58
81986.2,931323.94,33221.62
81961.5,930890.2,33221.66
81919.12,930622.06,33221.7
81910.12,930521.6,33221.74
81889.63,930519.4,33221.78
81902.17,930532.25,33221.82
81874.81,930566.4,33221.86
81876.69,930625.8,33221.9
81887.94,930576.4,33221.938
81893.586,930514.2,33221.98
81935.74,930579.6,33222.02
81950.94,930671.7,33222.06
81966.31,930749.8,33222.098
82041.33,930890.6,33222.14
82028.33,930977.9,33222.18
82082.37,931101.75,33222.22
82105.64,931132.44,33222.258
82144.45,931231.56,33222.3
82173.555,931264.3,33222.34
82122.875,931267.9,33222.38
82055.13,931294.8,33222.418
82026.914,931081.8,33222.46
81960.97,930778.56,33222.5
81888.9,930591.7,33222.54
81930.33,930658.3,33222.58
81956.34,930718.5,33222.62
81952.36,930724.06,33222.66
81950.125,930797.9,33222.7
81996.445,930960.75,33222.74
81929.86,930940.3,33222.78
81961.5,930939.0,33222.82
81959.22,931079.3,33222.86
82032.55,931252.5,33222.9
82052.82,931442.8,33222.938
82071.65,931654.4,33222.98
82096.836,931864.75,33223.02
82156.79,931977.44,33223.06
82172.84,932183.7,33223.098
82228.34,932321.9,33223.14
82211.43,932498.3,33223.18
82143.445,932601.9,33223.22
82069.49,932568.94,33223.258
81989.266,932434.75,33223.3
81965.76,932308.3,33223.34
81944.914,932269.2,33223.38
81909.25,932380.75,33223.418
81887.71,932468.9,33223.46
81907.69,932615.9,33223.5
81883.89,932712.2,33223.54
81890.81,932807.3,33223.58
81882.94,932847.1,33223.62
81904.98,932933.9,33223.66
81919.3,933073.8,33223.7
81904.96,933212.8,33223.74
81955.25,933387.4,33223.78
81992.055,933521.1,33223.82
82007.45,933610.5,33223.86
82031.16,933709.4,33223.9
82057.33,933849.94,33223.938
82115.62,933970.06,33223.98
82092.82,933982.4,33224.02
82010.17,933892.25,33224.06
81959.43,933725.4,33224.098
81875.25,933431.44,33224.14
81820.06,933083.94,33224.18
81764.63,932884.4,33224.22
81754.08,932800.56,33224.258
81736.695,932725.9,33224.3
81702.875,932603.0,33224.34
81676.13,932548.1,33224.38
81676.24,932516.44,33224.418
81663.71,932369.56,33224.46
81675.93,932219.5,33224.5
81675.52,932153.44,33224.54
81686.0,932117.9,33224.58
81697.57,932113.0,33224.62
81726.875,932191.7,33224.66
81753.56,932215.8,33224.7
81772.26,932293.1,33224.74
81790.81,932279.7,33224.777
81830.68,932347.94,33224.82
81832.35,932330.56,33224.86
81752.55,932219.3,33224.9
81663.76,932134.75,33224.938
81587.7,931755.7,33224.98
81533.99,931329.7,33225.02
81489.92,931133.56,33225.06
81472.61,931046.2,33225.098
81447.13,931045.7,33225.14
81442.32,931019.6,33225.18
81409.266,931123.9,33225.22
81391.445,931107.75,33225.258
81407.234,931043.06,33225.3
81387.08,930984.9,33225.34
81390.38,931092.3,33225.38
81416.234,931196.9,33225.418
81425.664,931310.94,33225.46
81453.09,931456.7,33225.5
81455.26,931565.6,33225.54
81481.69,931728.25,33225.58
81510.01,931793.75,33225.62
81492.06,931879.7,33225.66
81429.06,931844.06,33225.7
81335.805,931745.0,33225.74
81228.95,931538.5,33225.777
81174.305,931355.5,33225.82
81123.0,931301.6,33225.86
81105.32,931349.9,33225.9
81090.37,931485.8,33225.938
81064.32,931583.94,33225.98
81026.0,931696.44,33226.02
81013.99,931801.3,33226.06
81011.06,931838.2,33226.098
81018.04,931903.8,33226.14
81021.19,932009.8,33226.18
81030.375,932225.94,33226.22
81046.44,932427.3,33226.258
81059.87,932559.7,33226.3
81079.83,932695.5,33226.34
81103.93,932806.06,33226.38
81125.89,932937.0,33226.418
81160.805,933038.8,33226.46
81106.016,933042.4,33226.5
81004.39,932950.9,33226.54
80921.35,932758.7,33226.58
80826.87,932390.1,33226.62
80754.75,932134.25,33226.66
80677.266,932021.25,33226.7
80631.46,932054.5,33226.74
80608.39,932061.44,33226.777
80590.68,932125.1,33226.82
80551.14,932152.2,33226.86
80544.38,932230.56,33226.9
80503.34,932197.7,33226.938
80522.81,932256.44,33226.98
80536.14,932297.56,33227.02
80563.44,932462.6,33227.06
80576.11,932461.8,33227.098
80578.016,932566.25,33227.14
80641.49,932599.4,33227.18
80673.34,932698.1,33227.22
80688.68,932785.94,33227.258
80713.57,932968.0,33227.3
80688.945,933090.56,33227.34
80618.5,932971.5,33227.38
80525.12,932731.0,33227.418
80441.81,932372.4,33227.46
80389.31,931987.3,33227.5
80370.36,931801.1,33227.54
80339.49,931771.94,33227.58
80326.125,931706.25,33227.62
80316.19,931672.3,33227.66
80307.62,931669.2,33227.7
80281.69,931621.7,33227.74
80276.34,931488.6,33227.777
80308.31,931444.5,33227.82
80319.0,931435.75,33227.86
80350.24,931435.1,33227.9
80400.1,931487.3,33227.938
80404.945,931506.3,33227.98
80441.516,931580.1,33228.02
80476.27,931561.06,33228.06
80535.93,931581.2,33228.098
80551.016,931637.56,33228.14
80556.96,931597.94,33228.18
80556.984,931470.25,33228.22
80484.17,931403.44,33228.258
80443.16,931091.2,33228.3
80386.07,930730.9,33228.34
80395.234,930604.7,33228.38
80376.21,930603.9,33228.418
80429.85,930534.94,33228.46
80409.49,930339.5,33228.5
80407.805,930221.25,33228.54
80417.7,930337.44,33228.58
80450.55,930436.94,33228.62
80467.39,930545.8,33228.66
80497.74,930708.25,33228.7
80526.26,930899.5,33228.74
80580.94,931096.3,33228.777
80620.63,931323.25,33228.82
80673.99,931546.75,33228.86
80729.67,931735.44,33228.9
80773.0,931957.6,33228.938
80821.31,932240.7,33228.98
80779.445,932347.0,33229.02
80745.81,932311.5,33229.06
80705.42,932132.0,33229.098
80642.945,931837.0,33229.14
80626.016,931593.3,33229.18
80649.195,931639.8,33229.22
80676.98,931811.4,33229.258
80672.19,931920.0,33229.3
80687.94,932023.75,33229.34
80700.07,932126.75,33229.38
80720.195,932171.4,33229.418
80761.8,932303.3,33229.46
80785.74,932456.3,33229.5
80820.06,932652.44,33229.54
80877.51,932851.5,33229.58
80922.75,933001.4,33229.62
80983.99,933155.56,33229.66
81013.51,933273.9,33229.7
81051.81,933439.94,33229.74
81110.57,933560.9,33229.777
81155.38,933725.75,33229.82
81143.46,933722.0,33229.86
81127.59,933707.4,33229.9
81107.0,933575.25,33229.938
81049.87,933302.5,33229.98
81031.49,933070.25,33230.02
81033.484,932973.7,33230.06
81033.805,933082.6,33230.098
81044.125,933159.56,33230.14
81074.914,933207.8,33230.18
81091.36,933294.75,33230.22
81105.25,933354.75,33230.258
81119.49,933334.3,33230.3
81140.56,933322.75,33230.34
81186.95,933312.5,33230.38
81222.44,933327.2,33230.418
81267.69,933398.6,33230.46
81312.39,933520.0,33230.5
81358.2,933607.9,33230.54
81414.875,933735.1,33230.58
81453.26,933751.7,33230.62
81517.875,933794.4,33230.66
81550.74,933877.6,33230.7
81558.11,933859.94,33230.74
81526.07,933743.9,33230.777
81499.82,933574.75,33230.82
81477.195,933243.3,33230.86
81462.7,932974.2,33230.9
81484.13,932824.7,33230.938
81498.52,932815.8,33230.98
81523.63,932770.44,33231.02
81521.586,932694.9,33231.06
81552.82,932730.94,33231.098
81611.44,932734.6,33231.14
81634.305,932676.7,33231.18
81609.734,932724.1,33231.22
81667.57,932824.5,33231.258
81712.94,932943.75,33231.3
81759.555,933041.5,33231.34
81798.39,933170.06,33231.38
81841.95,933216.7,33231.418
81892.32,933290.1,33231.46
81925.82,933365.56,33231.5
81964.836,933475.5,33231.54
81978.125,933477.6,33231.58
81952.55,933434.3,33231.62
81907.38,933343.25,33231.66
81870.09,932927.06,33231.7
81868.766,932691.9,33231.74
81881.875,932656.44,33231.777
81907.125,932740.75,33231.82
81886.1,932810.8,33231.86
81900.2,932923.3,33231.9
81929.06,933038.9,33231.938
81959.06,933069.25,33231.98
81992.17,933106.0,33232.02
82014.89,933168.1,33232.06
82044.695,933394.94,33232.098
82091.73,933615.9,33232.14
82120.87,933877.6,33232.18
82145.36,934027.25,33232.22
82165.14,934236.25,33232.258
82223.0,934388.94,33232.3
82279.54,934510.0,33232.34
82291.45,934593.7,33232.38
82261.82,934585.0,33232.418
82223.62,934571.2,33232.46
82145.31,934429.2,33232.5
82111.69,934237.75,33232.54
82098.305,934075.8,33232.58
82077.375,934136.06,33232.62
82057.64,934270.0,33232.66
82083.2,934458.94,33232.7
82067.46,934577.0,33232.74
82066.07,934658.1,33232.777
82078.06,934720.6,33232.82
82073.766,934717.94,33232.86
82107.62,934770.5,33232.9
82125.94,934896.75,33232.938
82161.49,935026.8,33232.98
82170.02,935199.4,33233.02
82208.08,935201.25,33233.06
82230.76,935303.75,33233.098
82255.64,935433.06,33233.14
82287.0,935526.75,33233.18
82311.82,935660.8,33233.22
82272.586,935572.8,33233.258
82224.945,935469.0,33233.3
82160.76,935276.75,33233.34
82102.94,934980.8,33233.38
82042.625,934708.3,33233.418
82030.68,934647.25,33233.46
82022.82,934674.7,33233.5
82028.16,934650.4,33233.54
81992.125,934682.7,33233.58
81987.63,934720.2,33233.62
81989.78,934619.9,33233.66
81972.766,934629.5,33233.7
81984.195,934465.75,33233.74
82001.24,934471.3,33233.777
82031.95,934626.25,33233.82
82061.305,934775.7,33233.86
82080.08,934900.9,33233.9
82115.88,935059.56,33233.938
82128.83,935088.1,33233.98
82164.75,935089.75,33234.02
82197.25,935171.8,33234.06
82169.99,935065.06,33234.098
82121.49,934921.5,33234.14
82077.484,934704.25,33234.18
81994.51,934277.44,33234.22
81968.445,933917.1,33234.258
81943.76,933796.2,33234.3
81941.31,933792.56,33234.34
81951.8,933739.5,33234.38
81922.93,933770.3,33234.418
81927.695,933792.75,33234.46
81926.484,933758.8,33234.5
81924.945,933685.06,33234.54
81967.35,933658.0,33234.58
81975.375,933722.9,33234.617
81978.01,933787.44,33234.66
82023.23,933850.7,33234.7
82053.6,934010.8,33234.74
82068.016,934080.5,33234.777
82104.62,934136.75,33234.82
82122.76,934244.75,33234.86
82107.76,934192.75,33234.9
82040.516,934139.1,33234.938
81971.08,934027.0,33234.98
81940.164,933713.5,33235.02
81874.04,933497.3,33235.06
81882.92,933517.06,33235.098
81893.09,933484.6,33235.14
81870.8,933488.06,33235.18
81867.24,933549.5,33235.22
81862.734,933645.75,33235.258
81857.17,933704.3,33235.3
81854.016,933786.3,33235.34
81886.125,934012.94,33235.38
81895.31,934243.94,33235.418
81909.984,934489.8,33235.46
81941.45,934693.8,33235.5
81948.445,934856.8,33235.54
81978.71,935109.0,33235.58
82015.266,935309.7,33235.617
82045.664,935405.0,33235.66
81998.32,935300.25,33235.7
81919.625,935261.44,33235.74
81861.16,935141.0,33235.777
81760.95,934920.1,33235.82
81726.33,934772.2,33235.86
81685.95,934761.5,33235.9
81664.266,934887.06,33235.938
81658.5,934909.75,33235.98
81643.26,934985.7,33236.02
81629.0,935080.0,33236.06
81606.96,935197.0,33236.098
81631.99,935302.9,33236.14
81630.016,935409.25,33236.18
81622.59,935617.0,33236.22
81679.914,935782.5,33236.258
81690.89,935912.7,33236.3
81714.38,935959.8,33236.34
81737.86,936044.4,33236.38
81771.805,936229.8,33236.418
81785.05,936295.44,33236.46
81728.89,936258.56,33236.5
81652.26,936211.5,33236.54
81601.43,935975.3,33236.58
81530.48,935641.75,33236.617
81463.26,935260.4,33236.66
81439.016,935122.8,33236.7
81425.336,935107.5,33236.74
81429.87,935093.3,33236.777
81406.34,935108.56,33236.82
81412.25,935103.9,33236.86
81419.35,935061.5,33236.9
81422.99,934992.5,33236.938
81447.64,934997.5,33236.98
81467.0,935119.9,33237.02
81490.25,935194.06,33237.06
81496.21,935249.9,33237.098
81543.44,935274.4,33237.14
81560.125,935343.4,33237.18
81605.45,935410.9,33237.22
81643.62,935483.9,33237.258
81641.69,935515.8,33237.3
81606.56,935360.94,33237.34
81550.31,935043.9,33237.38
81483.125,934390.44,33237.418
81422.69,933919.75,33237.46
81397.51,933791.8,33237.5
81428.49,933770.5,33237.54
81419.8,933791.06,33237.58
81400.24,933810.4,33237.617
81415.29,933829.25,33237.66
81392.2,933862.8,33237.7
81410.94,933791.2,33237.74
81416.27,933778.0,33237.777
81445.88,933842.25,33237.82
81504.3,933877.94,33237.86
81521.81,933948.1,33237.9
81546.086,933975.0,33237.938
81580.43,934078.56,33237.98
81595.15,934232.75,33238.02
81655.164,934367.06,33238.06
81634.31,934389.3,33238.098
81561.39,934310.6,33238.14
81501.58,934079.3,33238.18
81461.945,933627.4,33238.22
81432.38,933374.6,33238.258
81430.18,933418.56,33238.3
81411.31,933521.9,33238.34
81428.75,933595.5,33238.38
81411.94,933759.75,33238.418
81424.914,933887.3,33238.46
81426.055,933971.4,33238.5
81428.625,934074.5,33238.54
81446.95,934241.0,33238.58
81491.81,934444.4,33238.617
81517.125,934600.1,33238.66
81555.8,934771.44,33238.7
81599.36,934924.8,33238.74
81621.0,935121.94,33238.777
81618.516,935325.25,33238.82
81581.945,935397.06,33238.86
81496.445,935349.75,33238.9
81443.5,935145.8,33238.938
81380.95,934842.44,33238.98
81345.89,934672.8,33239.02
81337.875,934674.25,33239.06
81309.81,934940.25,33239.098
81322.76,935142.9,33239.14
81324.99,935292.94,33239.18
81293.195,935510.4,33239.22
81299.76,935699.44,33239.258
81298.58,935835.5,33239.3
81325.81,935856.44,33239.34
81342.695,936038.1,33239.38
81358.516,936177.6,33239.418
81404.37,936406.3,33239.46
81459.98,936613.8,33239.5
81456.82,936812.75,33239.54
81452.555,937041.25,33239.58
81388.57,936986.7,33239.617
81304.31,936939.0,33239.66
81213.19,936795.06,33239.7
81133.44,936518.06,33239.74
81070.0,936360.94,33239.777
81026.94,936365.5,33239.82
80995.83,936474.7,33239.86
80974.76,936529.6,33239.9
80961.43,936638.44,33239.938
80924.17,936746.75,33239.98
80937.92,936809.25,33240.02
80913.086,936842.25,33240.06
80958.6,936959.0,33240.098
80973.234,937021.1,33240.14
80969.13,937140.94,33240.18
80974.25,937188.7,33240.22
80995.195,937320.9,33240.258
81016.95,937439.4,33240.3
81056.2,937517.56,33240.34
81056.36,937489.25,33240.38
80985.805,937333.5,33240.418
80895.61,937130.7,33240.46
80804.95,936830.2,33240.5
80732.7,936519.6,33240.54
80700.13,936352.1,33240.58
80697.8,936312.8,33240.617
80696.28,936351.6,33240.66
80656.016,936279.7,33240.7
80652.43,936290.4,33240.74
80654.664,936243.56,33240.777
80646.39,936212.5,33240.82
80639.016,936185.0,33240.86
80701.29,936268.0,33240.9
80690.96,936291.3,33240.938
80737.51,936395.56,33240.98
80784.18,936405.5,33241.02
80802.695,936470.25,33241.06
80857.07,936434.9,33241.098
80893.625,936512.06,33241.14
80864.37,936409.7,33241.18
80783.77,936272.94,33241.22
80713.26,936029.2,33241.258
80683.67,935650.0,33241.3
80659.56,935322.5,33241.34
80663.234,935202.9,33241.38
80667.305,935191.9,33241.418
80661.664,935239.1,33241.46
80643.586,935218.6,33241.5
80666.984,935232.5,33241.54
80654.45,935166.06,33241.58
80697.77,935122.4,33241.617
80721.25,935157.2,33241.66
80764.43,935210.2,33241.7
80791.44,935297.9,33241.74
80828.94,935456.44,33241.777
80872.94,935528.9,33241.82
80914.05,935594.4,33241.86
80948.74,935669.06,33241.9
80911.92,935593.8,33241.938
80839.445,935536.94,33241.98
80778.29,935329.4,33242.02
80732.336,934991.3,33242.06
80717.06,934893.7,33242.098
80708.44,934922.1,33242.14
80720.64,935005.0,33242.18
80724.17,935097.44,33242.22
80721.31,935227.94,33242.258
80737.49,935309.8,33242.3
80739.945,935344.8,33242.34
80765.445,935447.56,33242.38
80806.555,935635.4,33242.418
80822.45,935813.25,33242.46
80873.57,936015.9,33242.5
80908.64,936217.2,33242.54
80959.516,936408.25,33242.58
81008.75,936617.1,33242.617
81000.26,936794.7,33242.66
80956.36,936783.7,33242.7
80880.98,936775.1,33242.74
80807.46,936648.9,33242.777
80785.875,936518.2,33242.82
80781.92,936453.0,33242.86
80735.27,936455.7,33242.9
80747.875,936569.4,33242.938
80722.09,936693.44,33242.98
80741.5,936819.75,33243.02
80726.26,936946.6,33243.06
80748.57,937004.6,33243.098
80776.375,937044.94,33243.14
80806.38,937189.4,33243.18
80830.25,937286.1,33243.22
80861.5,937486.44,33243.258
80887.31,937576.8,33243.3
80950.43,937697.25,33243.34
80968.625,937846.9,33243.38
81012.93,937916.44,33243.418
80978.95,937867.2,33243.46
80925.88,937689.3,33243.5
80843.836,937501.44,33243.54
80799.5,937181.94,33243.58
80776.02,937019.25,33243.617
80767.305,936909.4,33243.66
80774.56,936930.9,33243.7
80768.31,936988.44,33243.74
80782.05,936993.4,33243.777
80804.62,937066.4,33243.82
80792.836,937086.3,33243.86
80804.81,937026.25,33243.9
80856.44,937032.6,33243.938
80887.93,937119.44,33243.98
80953.73,937176.6,33244.02
80952.39,937239.94,33244.06
81019.555,937254.1,33244.098
81046.32,937299.6,33244.14
81111.36,937346.44,33244.18
81137.695,937365.5,33244.22
81146.88,937389.0,33244.258
81114.31,937171.4,33244.3
81051.07,937035.56,33244.34
81032.64,936694.75,33244.38
81017.07,936376.8,33244.418
81013.51,936147.0,33244.46
81042.97,936107.7,33244.5
81056.55,936121.6,33244.54
81059.76,936116.94,33244.58
81070.95,936127.25,33244.617
81087.58,936075.94,33244.66
81126.69,935994.75,33244.7
81141.53,935911.56,33244.74
81186.4,935894.3,33244.777
81214.28,935896.5,33244.82
81261.9,935921.56,33244.86
81318.12,936006.9,33244.9
81371.4,936048.3,33244.938
81445.695,936127.2,33244.98
81446.42,936139.25,33245.02
81435.37,936017.3,33245.06
81369.0,935999.9,33245.098
81321.85,935682.1,33245.14
81292.27,935330.94,33245.18
81286.2,935170.5,33245.22
81299.06,935139.75,33245.258
81335.5,935257.4,33245.3
81350.055,935342.8,33245.34
81375.69,935518.1,33245.38
81371.93,935572.8,33245.418
81385.805,935571.4,33245.46
81426.375,935598.94,33245.5
81456.63,935769.2,33245.54
81476.414,935903.6,33245.58
81545.73,936089.44,33245.617
81606.984,936203.2,33245.66
81635.5,936288.7,33245.7
81649.836,936211.6,33245.74
81696.16,936138.44,33245.777
81621.51,936089.0,33245.82
81581.62,936121.6,33245.86
81525.7,935957.6,33245.9
81534.12,935750.7,33245.938
81591.55,935789.94,33245.98
81517.984,935987.3,33246.02
81549.734,936231.94,33246.06
81533.63,936398.3,33246.098
81552.64,936622.75,33246.14
81553.82,936809.6,33246.18
81576.32,936975.5,33246.22
81572.53,937100.4,33246.258
81623.69,937387.5,33246.3
81672.68,937645.8,33246.34
81668.445,937874.94,33246.38
81728.055,938017.25,33246.418
81761.805,938235.9,33246.457
81813.23,938472.06,33246.5
81817.44,938668.9,33246.54
81782.93,938682.44,33246.58
81708.5,938571.3,33246.617
81634.25,938435.2,33246.66
81554.02,938233.56,33246.7
81548.23,938023.4,33246.74
81494.14,938001.2,33246.777
81488.695,938072.3,33246.82
81474.88,938184.25,33246.86
81468.16,938265.6,33246.9
81463.195,938314.2,33246.938
81467.7,938390.6,33246.98
81460.02,938392.8,33247.02
81482.81,938429.2,33247.06
81495.92,938561.7,33247.098
81525.305,938685.7,33247.14
81554.44,938750.2,33247.18
81585.01,938810.56,33247.22
81614.62,938802.06,33247.258
81637.055,938713.7,33247.3
81632.164,938787.94,33247.34
81575.805,938816.0,33247.38
81471.45,938780.06,33247.418
81430.305,938566.3,33247.457
81385.81,938226.06,33247.5
81378.67,937876.75,33247.54
81342.5,937595.06,33247.58
81343.125,937618.0,33247.617
81344.195,937707.8,33247.66
81332.94,937838.5,33247.7
81371.375,937891.75,33247.74
81442.61,937920.4,33247.777
81379.81,937786.6,33247.82
81433.8,937807.9,33247.86
81452.37,937988.94,33247.9
81468.586,938170.44,33247.938
81544.2,938246.56,33247.98
81555.234,938255.06,33248.02
81599.3,938239.25,33248.06
81615.17,938230.0,33248.098
81580.836,938108.0,33248.14
81486.35,938005.1,33248.18
81473.92,937707.44,33248.22
81436.31,937313.3,33248.258
81426.72,937128.94,33248.3
81469.23,937074.0,33248.34
81470.75,937088.2,33248.38
81500.03,937097.1,33248.418
81501.36,937183.75,33248.457
81530.97,937239.5,33248.5
81535.22,937252.7,33248.54
81530.85,937272.6,33248.58
81612.734,937288.9,33248.617
81634.805,937389.7,33248.66
81667.72,937445.2,33248.7
81700.72,937534.0,33248.74
81719.88,937609.0,33248.777
81773.19,937667.94,33248.82
81759.49,937570.6,33248.86
81723.414,937521.94,33248.9
81663.2,937306.3,33248.938
81653.875,937026.3,33248.98
81673.78,936866.75,33249.02
81671.625,936899.94,33249.06
81692.234,936926.7,33249.098
81711.94,936958.7,33249.14
81681.7,937038.56,33249.18
81711.24,937048.3,33249.22
81744.04,937105.56,33249.258
81761.99,937131.44,33249.3
81782.445,937274.94,33249.34
81824.055,937405.0,33249.38
81853.55,937490.75,33249.418
81885.14,937613.9,33249.457
81928.56,937755.56,33249.5
81927.81,937821.9,33249.54
81875.38,937760.94,33249.58
81845.49,937745.5,33249.617
81814.05,937541.44,33249.66
81766.41,937343.7,33249.7
81756.766,937290.5,33249.74
81748.41,937420.7,33249.777
81790.42,937615.1,33249.82
81786.56,937829.7,33249.86
81799.61,938025.4,33249.9
81813.01,938222.75,33249.938
81806.22,938345.9,33249.98
81832.2,938474.8,33250.02
81871.32,938629.6,33250.06
81889.31,938830.0,33250.098
81917.0,939076.1,33250.14
81971.18,939213.56,33250.18
81980.266,939357.4,33250.22
82005.62,939427.2,33250.258
81946.375,939359.1,33250.3
81868.336,939299.2,33250.34
81831.484,939068.8,33250.38
81779.24,938927.94,33250.418
81781.04,938815.56,33250.457
81729.73,938818.9,33250.5
81754.69,938934.44,33250.54
81754.06,938953.2,33250.58
81751.74,938988.25,33250.617
81723.65,939013.3,33250.66
81759.875,939101.1,33250.7
81757.125,939121.25,33250.74
81793.164,939154.06,33250.777
81801.805,939294.25,33250.82
81841.75,939468.4,33250.86
81862.66,939632.44,33250.9
81906.305,939751.7,33250.938
81860.53,939686.6,33250.98
81832.81,939537.75,33251.02
81748.58,939336.3,33251.06
81724.01,939050.2,33251.098
81690.086,938822.25,33251.14
81670.33,938677.6,33251.18
81685.82,938744.44,33251.22
81688.33,938789.3,33251.258
81702.766,938827.0,33251.3
81722.0,938872.94,33251.34
81796.35,938839.0,33251.38
81724.51,938851.6,33251.418
81759.39,938890.25,33251.457
81795.56,938951.2,33251.5
81814.516,939026.6,33251.54
81849.625,939079.56,33251.58
81904.77,939140.9,33251.617
81943.945,939190.7,33251.66
81951.65,939278.44,33251.7
81941.805,939190.5,33251.74
81919.31,939018.1,33251.777
81896.24,938872.5,33251.82
81858.51,938560.2,33251.86
81885.56,938425.06,33251.9
81878.53,938497.2,33251.938
81917.92,938584.94,33251.98
81932.5,938647.3,33252.02
81943.266,938665.0,33252.06
81978.8,938738.94,33252.098
81993.2,938728.56,33252.14
82030.57,938744.5,33252.18
82067.95,938842.8,33252.22
82109.87,938942.94,33252.258
82156.61,939044.7,33252.3
82197.875,939137.0,33252.34
82251.75,939206.1,33252.38
82281.37,939234.56,33252.418
82282.86,939091.4,33252.457
82241.68,938985.9,33252.5
82215.18,938872.7,33252.54
82200.96,938672.2,33252.58
82204.82,938642.75,33252.617
82263.5,938707.06,33252.66
82278.15,938799.9,33252.7
82308.5,938851.75,33252.74
82359.664,938936.56,33252.777
82371.12,939024.1,33252.82
82419.234,939036.5,33252.86
82438.51,939087.4,33252.9
82490.81,939251.1,33252.938
82524.38,939398.4,33252.98
82594.42,939461.1,33253.02
82628.93,939595.75,33253.06
82678.695,939779.2,33253.098
82683.016,939939.9,33253.14
82675.69,939877.0,33253.18
82659.44,939885.2,33253.22
82649.445,939849.75,33253.258
82667.055,939815.44,33253.297
82696.19,939833.5,33253.34
82714.95,939980.06,33253.38
82757.51,940157.6,33253.418
82774.0,940317.44,33253.457
82820.17,940464.75,33253.5
82841.19,940563.2,33253.54
82870.7,940667.0,33253.58
82927.695,940834.7,33253.617
82972.43,941011.56,33253.66
83013.57,941216.4,33253.7
83059.92,941341.1,33253.74
83101.79,941540.8,33253.777
83132.43,941714.4,33253.82
83176.984,941819.0,33253.86
83149.64,941753.5,33253.9
83151.58,941752.9,33253.938
83146.15,941691.0,33253.98
83143.27,941648.3,33254.02
83174.18,941626.94,33254.06
83201.44,941688.5,33254.098
83230.8,941799.5,33254.14
83251.266,941842.7,33254.18
83286.61,941933.75,33254.22
83328.74,942092.1,33254.258
83337.34,942153.94,33254.3
83386.016,942223.9,33254.34
83429.055,942324.9,33254.38
83461.56,942407.5,33254.418
83514.24,942481.0,33254.457
83570.35,942523.7,33254.5
83600.2,942630.75,33254.54
83631.586,942744.75,33254.58
83695.04,942817.94,33254.617
83660.69,942726.1,33254.66
83664.26,942643.4,33254.7
83684.375,942615.6,33254.74
83705.17,942563.25,33254.777
83705.97,942496.0,33254.82
83757.56,942512.0,33254.86
83798.125,942569.75,33254.9
83838.07,942601.5,33254.938
83857.2,942687.8,33254.98
83880.016,942672.56,33255.02
83934.484,942692.06,33255.06
83961.586,942705.4,33255.098
83990.086,942730.7,33255.14
84047.43,942808.2,33255.18
84080.14,942898.44,33255.22
84148.24,942887.1,33255.258
84200.0,942961.4,33255.3
84245.32,943020.25,33255.34
84296.47,943075.3,33255.38
84292.3,943007.6,33255.418
84307.11,942921.94,33255.457
84322.55,942931.75,33255.5
84331.19,942858.94,33255.54
84362.92,942813.6,33255.58
84395.01,942862.1,33255.617
84442.05,942950.7,33255.66
84462.25,942954.6,33255.7
84475.766,943054.3,33255.74
84544.305,943134.3,33255.777
84561.44,943205.1,33255.82
84607.445,943171.8,33255.86
84652.42,943235.1,33255.9
84679.51,943400.5,33255.938
84708.586,943519.44,33255.98
84784.42,943622.2,33256.02
84817.99,943690.8,33256.06
84843.5,943788.0,33256.098
84875.734,943740.44,33256.14
84844.08,943705.0,33256.18
84871.49,943631.1,33256.22
84850.46,943620.8,33256.258
84888.74,943581.1,33256.3
84925.81,943685.6,33256.34
84936.19,943720.0,33256.38
84960.26,943739.8,33256.418
84971.02,943824.9,33256.457
84992.63,943907.9,33256.5
85031.94,943938.6,33256.54
85052.31,943919.75,33256.58
85079.805,943960.9,33256.617
85098.08,944084.7,33256.66
85145.625,944232.2,33256.7
85176.17,944291.8,33256.74
85208.62,944384.0,33256.777
85227.94,944508.25,33256.82
85230.875,944491.06,33256.86
85187.82,944433.4,33256.9
85178.44,944474.25,33256.938
85168.25,944396.44,33256.98
85144.51,944415.44,33257.02
85143.695,944475.6,33257.06
85164.61,944629.06,33257.098
85165.94,944748.7,33257.14
85163.48,944861.44,33257.18
85124.41,944920.56,33257.22
85151.49,944900.1,33257.258
85151.57,944969.3,33257.297
85138.16,945035.7,33257.34
85190.86,945146.1,33257.38
85181.51,945268.5,33257.418
85186.04,945375.4,33257.457
85197.41,945511.1,33257.5
85222.6,945594.06,33257.54
85153.445,945510.1,33257.58
85102.45,945409.5,33257.617
85047.734,945290.56,33257.66
84985.125,945218.2,33257.7
84945.484,945193.56,33257.74
84911.75,945246.2,33257.777
84871.516,945321.7,33257.82
84849.68,945371.9,33257.86
84823.555,945417.3,33257.9
84810.68,945439.94,33257.938
84793.805,945353.94,33257.98
84756.625,945373.8,33258.02
84741.62,945384.44,33258.06
84738.32,945420.6,33258.098
84716.695,945486.25,33258.14
84712.02,945528.1,33258.18
84721.87,945592.6,33258.22
84684.32,945551.5,33258.258
84620.43,945352.0,33258.297
84530.06,945239.75,33258.34
84436.195,945125.44,33258.38
84358.44,945026.06,33258.418
84303.85,944965.56,33258.457
84285.86,944982.1,33258.5
84215.81,945024.6,33258.54
84184.12,944963.5,33258.58
84146.305,944943.7,33258.617
84121.71,944919.25,33258.66
84050.45,944882.06,33258.7
84031.64,944862.56,33258.74
84022.945,944908.56,33258.777
84024.63,944989.7,33258.82
83989.266,945006.75,33258.86
84010.945,945119.1,33258.9
84012.35,945144.2,33258.938
83927.39,945019.44,33258.98
83859.7,944962.4,33259.02
83778.195,944848.94,33259.06
83697.24,944705.5,33259.098
83650.75,944658.7,33259.14
83619.625,944640.94,33259.18
83575.4,944648.8,33259.22
83551.055,944678.44,33259.258
83509.0,944679.0,33259.297
83486.26,944673.6,33259.34
83467.57,944673.6,33259.38
83472.984,944630.06,33259.418
83458.125,944684.94,33259.457
83478.23,944765.0,33259.5
83458.17,944810.2,33259.54
83471.85,944861.06,33259.58
83474.12,944928.06,33259.617
83398.4,944885.3,33259.66
83338.56,944832.3,33259.7
83259.62,944746.1,33259.74
83202.7,944694.3,33259.777
83154.57,944756.44,33259.82
83135.11,944859.2,33259.86
83088.49,944923.7,33259.9
83073.44,944954.5,33259.938
83047.805,945023.75,33259.98
82947.09,945113.1,33260.02
83002.29,945171.8,33260.06
82987.82,945249.0,33260.098
83019.164,945287.5,33260.14
82991.41,945400.44,33260.18
82998.875,945485.75,33260.22
82990.08,945554.6,33260.258
83004.94,945713.9,33260.297
83003.63,945815.6,33260.34
82978.92,945681.5,33260.38
82889.445,945620.9,33260.418
82820.01,945661.0,33260.457
82767.95,945703.3,33260.5
82725.64,945684.1,33260.54
82696.016,945751.25,33260.58
82693.8,945848.25,33260.617
82683.805,945875.25,33260.66
82664.305,945963.5,33260.7
82670.56,945967.25,33260.74
82656.19,946028.3,33260.777
82662.945,946049.5,33260.82
82679.984,946064.56,33260.86
82673.586,946105.1,33260.9
82671.195,946255.7,33260.938
82728.55,946318.5,33260.98
82743.49,946388.56,33261.02
82746.82,946384.7,33261.06
82726.445,946144.9,33261.098
82685.125,945900.75,33261.14
82620.26,945712.75,33261.18
82508.21,945462.3,33261.22
82574.06,945359.6,33261.258
82578.695,945403.25,33261.297
82607.91,945546.6,33261.34
82576.46,945533.3,33261.38
82637.4,945532.4,33261.418
82610.62,945584.9,33261.457
82607.016,945592.7,33261.5
82643.82,945672.1,33261.54
82661.5,945686.8,33261.58
82681.65,945724.9,33261.617
82723.19,945776.6,33261.66
82740.81,945805.2,33261.7
82799.75,945835.06,33261.74
82819.69,945840.25,33261.777
82802.125,945723.2,33261.82
82753.9,945701.8,33261.86
82748.32,945718.2,33261.9
82759.484,945651.0,33261.938
82753.99,945656.8,33261.98
82776.12,945693.56,33262.02
82767.83,945763.4,33262.06
82803.44,945786.25,33262.098
82808.125,945854.9,33262.14
82843.375,945895.9,33262.18
82857.62,945915.3,33262.22
82879.94,945896.8,33262.258
82912.125,945999.7,33262.297
82944.68,946094.75,33262.34
82980.06,946170.4,33262.38
83024.67,946240.75,33262.418
83022.56,946273.2,33262.457
83034.55,946166.94,33262.5
82981.45,946179.44,33262.54
82954.45,946148.7,33262.58
82963.14,946136.3,33262.617
82968.62,946141.2,33262.66
82992.17,946277.44,33262.7
82975.22,946402.1,33262.74
82970.9,946525.3,33262.777
83009.7,946637.56,33262.82
83022.8,946700.1,33262.86
83055.6,946780.1,33262.9
83057.016,946920.2,33262.938
83051.96,947033.75,33262.98
83089.016,947164.06,33263.02
83132.57,947321.56,33263.06
83148.21,947453.3,33263.098
83157.055,947566.0,33263.14
83128.93,947562.56,33263.18
83078.64,947541.0,33263.22
83052.81,947562.56,33263.258
83049.29,947589.0,33263.297
83036.28,947629.75,33263.34
83044.766,947732.8,33263.38
83054.42,947790.94,33263.418
83059.17,947829.44,33263.457
83083.49,947950.5,33263.5
83065.31,948003.06,33263.54
83092.06,948071.5,33263.58
83098.43,948100.9,33263.617
83120.445,948159.4,33263.66
83147.875,948191.44,33263.7
83166.43,948252.5,33263.74
83194.46,948272.0,33263.777
83149.24,948171.8,33263.82
83096.69,948043.1,33263.86
83056.695,947957.6,33263.9
83035.19,947779.2,33263.938
83012.75,947649.4,33263.98
83013.445,947596.25,33264.02
83015.45,947580.06,33264.06
83022.06,947551.9,33264.098
83012.0,947527.8,33264.14
83025.31,947542.0,33264.18
83012.445,947520.75,33264.22
83031.94,947476.44,33264.258
83031.016,947484.56,33264.297
83084.52,947570.44,33264.34
83103.41,947600.7,33264.38
83119.625,947668.4,33264.418
83117.766,947652.5,33264.457
83123.18,947535.8,33264.5
83051.44,947390.5,33264.54
83020.19,947283.06,33264.58
83009.05,947149.44,33264.617
83003.85,947084.0,33264.66
82999.29,947077.8,33264.7
83006.016,947094.6,33264.74
82979.016,947080.56,33264.777
83005.37,947084.9,33264.82
82988.695,947091.0,33264.86
82992.51,947113.6,33264.9
83021.945,947135.06,33264.938
83041.92,947215.0,33264.98
83026.84,947284.4,33265.02
83064.516,947439.1,33265.06
83097.79,947495.9,33265.098
83071.51,947427.6,33265.14
83012.13,947350.4,33265.18
82968.74,947291.1,33265.22
82928.33,947263.56,33265.258
82913.42,947217.3,33265.297
82905.08,947262.4,33265.34
82921.18,947321.9,33265.38
82913.87,947404.56,33265.418
82918.05,947510.44,33265.457
82906.56,947564.5,33265.5
82891.13,947613.6,33265.54
82897.27,947669.75,33265.58
82910.62,947743.75,33265.617
82936.12,947803.0,33265.66
82933.5,947924.94,33265.7
82929.51,947973.9,33265.74
82907.17,947939.4,33265.777
82857.19,947878.6,33265.82
82792.695,947868.94,33265.86
82766.72,947762.4,33265.9
82729.8,947803.56,33265.938
82695.32,947926.1,33265.98
82682.57,948075.25,33266.02
82682.63,948200.8,33266.06
82668.57,948337.0,33266.098
82658.33,948521.25,33266.14
82641.15,948587.44,33266.18
82652.31,948653.0,33266.22
82666.45,948767.25,33266.258
82669.5,948828.3,33266.297
82711.875,948968.1,33266.34
82713.125,949039.25,33266.38
82681.164,948939.8,33266.418
82594.195,948904.4,33266.457
82532.0,948837.2,33266.5
82476.9,948799.2,33266.54
82472.305,948786.1,33266.58
82443.91,948852.94,33266.617
82431.25,948929.56,33266.66
82435.68,948915.7,33266.7
82413.945,948956.44,33266.74
82429.305,949015.6,33266.777
82417.35,949044.75,33266.82
82407.31,949101.94,33266.86
82428.25,949092.4,33266.9
82454.81,949104.7,33266.938
82482.37,949162.5,33266.98
82489.34,949170.6,33267.02
82476.53,949181.7,33267.06
82426.07,948975.75,33267.098
82382.81,948890.2,33267.14
82350.37,948798.0,33267.18
82307.82,948729.5,33267.22
82307.36,948677.56,33267.258
82297.11,948616.94,33267.297
82298.83,948558.44,33267.34
82293.76,948532.94,33267.38
82316.67,948624.0,33267.418
82311.18,948645.5,33267.457
82306.125,948666.8,33267.5
82354.61,948671.75,33267.54
82359.555,948708.0,33267.58
82383.89,948769.5,33267.617
82417.0,948776.0,33267.66
82432.58,948775.56,33267.7
82424.0,948630.75,33267.74
82392.555,948503.8,33267.777
82362.695,948401.94,33267.82
82329.52,948277.1,33267.86
82335.56,948278.7,33267.9
82337.5,948259.75,33267.938
82345.71,948348.25,33267.98
82371.484,948396.9,33268.02
82372.625,948436.06,33268.06
82382.945,948501.4,33268.098
82426.85,948510.8,33268.137
82444.61,948538.8,33268.18
82455.13,948547.9,33268.22
82511.484,948632.3,33268.258
82528.33,948718.4,33268.297
82568.13,948847.5,33268.34
82583.13,948930.75,33268.38
82556.64,948813.25,33268.418
82544.76,948809.06,33268.457
82552.24,948793.9,33268.5
82522.945,948824.44,33268.54
82530.0,948965.56,33268.58
82545.58,949186.7,33268.617
82566.65,949404.56,33268.66
82591.055,949489.7,33268.7
82603.51,949631.56,33268.74
82630.62,949794.06,33268.777
82658.87,949951.6,33268.82
82669.22,950091.06,33268.86
82716.83,950226.2,33268.9
82764.38,950424.3,33268.938
82820.36,950610.2,33268.98
82837.39,950830.25,33269.02
82873.12,951022.2,33269.06
82863.89,951062.9,33269.098
82844.88,951061.44,33269.137
82841.68,951097.0,33269.18
82839.76,951130.9,33269.22
82877.66,951239.9,33269.258
82878.12,951310.6,33269.297
82896.14,951400.1,33269.34
82927.625,951512.5,33269.38
82937.52,951598.75,33269.418
82973.88,951706.7,33269.457
83002.125,951792.44,33269.5
83044.57,951855.1,33269.54
83096.555,951952.5,33269.58
83115.81,952080.75,33269.617
83155.39,952218.4,33269.66
83203.56,952321.5,33269.7
83241.49,952396.75,33269.74
83248.89,952344.06,33269.777
83237.56,952336.7,33269.82
83250.69,952366.7,33269.86
83256.5,952406.94,33269.9
83277.484,952440.7,33269.938
83302.88,952507.94,33269.98
83338.875,952533.9,33270.02
83376.01,952474.94,33270.06
83399.82,952577.2,33270.098
83433.15,952644.75,33270.137
83479.49,952729.0,33270.18
83508.67,952783.56,33270.22
83527.58,952856.0,33270.258
83615.72,952908.25,33270.297
83646.69,952839.0,33270.34
83685.555,952861.44,33270.38
83716.68,952905.0,33270.418
83718.11,952900.2,33270.457
83657.88,952800.75,33270.5
83740.0,952747.8,33270.54
83721.52,952690.56,33270.58
83759.055,952601.0,33270.617
83787.32,952622.9,33270.66
83773.41,952651.9,33270.7
83851.89,952694.0,33270.74
83869.63,952745.25,33270.777
83903.49,952794.5,33270.82
83942.08,952853.0,33270.86
83968.74,952854.5,33270.9
84010.766,952875.4,33270.938
84055.805,952869.3,33270.98
84067.21,952919.9,33271.02
84149.164,952948.75,33271.06
84120.21,952866.25,33271.098
84140.97,952819.1,33271.137
84140.695,952797.7,33271.18
84135.57,952703.56,33271.22
84152.625,952662.06,33271.258
84185.125,952610.6,33271.297
84223.88,952662.2,33271.34
84218.26,952690.7,33271.38
84247.5,952750.1,33271.418
84254.4,952817.6,33271.457
84300.43,952861.9,33271.5
84328.875,952884.75,33271.54
84338.45,952934.56,33271.58
84371.2,952957.4,33271.617
84406.305,953034.25,33271.66
84429.64,953098.2,33271.7
84438.38,953075.6,33271.74
84424.89,953064.56,33271.777
84411.99,953087.5,33271.82
84392.625,953085.06,33271.86
84373.2,953109.44,33271.9
84387.266,953195.0,33271.938
84386.95,953326.1,33271.98
84384.95,953402.75,33272.02
84397.94,953508.06,33272.06
84396.9,953612.6,33272.098
84423.67,953718.44,33272.137
84409.62,953804.7,33272.18
84424.58,953946.6,33272.22
84457.44,954118.2,33272.258
84451.24,954267.94,33272.297
84471.945,954320.06,33272.34
84470.305,954202.44,33272.38
84409.94,954172.9,33272.418
84344.76,954193.8,33272.457
84296.586,954197.56,33272.5
84282.0,954211.56,33272.54
84291.37,954321.8,33272.58
84272.18,954362.5,33272.617
84245.45,954389.5,33272.66
84260.23,954442.5,33272.7
84231.26,954497.06,33272.74
84236.055,954542.3,33272.777
84229.81,954562.25,33272.82
84219.08,954640.1,33272.86
84228.75,954692.7,33272.9
84235.945,954723.75,33272.938
84210.71,954656.94,33272.98
84138.03,954505.1,33273.02
84083.08,954469.94,33273.06
84014.75,954385.25,33273.098
83948.016,954355.4,33273.137
83914.516,954309.1,33273.18
83910.61,954305.0,33273.22
83885.36,954312.94,33273.258
83835.95,954310.4,33273.297
83817.07,954314.7,33273.34
83791.06,954277.0,33273.38
83789.52,954248.5,33273.418
83789.81,954198.9,33273.457
83766.8,954155.4,33273.5
83840.25,954219.6,33273.54
83779.05,954219.94,33273.58
83735.72,954020.2,33273.617
83633.05,953919.7,33273.66
83556.93,953838.4,33273.7
83449.43,953770.5,33273.74
83465.19,953728.1,33273.777
83418.125,953732.25,33273.82
83397.56,953747.8,33273.86
83377.11,953719.94,33273.9
83365.45,953744.9,33273.938
83342.97,953771.0,33273.98
83323.984,953769.0,33274.02
83314.24,953749.2,33274.06
83306.34,953792.7,33274.098
83267.43,953782.7,33274.137
83333.734,953803.0,33274.18
83281.95,953717.6,33274.22
83245.49,953614.9,33274.258
83153.445,953602.56,33274.297
83098.68,953527.94,33274.34
83031.71,953553.4,33274.38
83021.016,953543.6,33274.418
83011.195,953582.9,33274.457
83014.414,953655.6,33274.5
82999.3,953682.6,33274.54
82983.12,953684.1,33274.58
82972.69,953662.0,33274.617
82968.94,953685.7,33274.66
82976.125,953736.06,33274.7
82986.71,953773.6,33274.74
83006.82,953851.44,33274.777
83025.17,953844.0,33274.82
82974.17,953728.25,33274.86
82921.21,953685.2,33274.9
82879.984,953678.7,33274.938
82828.51,953667.1,33274.98
82813.12,953688.8,33275.02
82811.87,953732.06,33275.06
82801.26,953774.2,33275.098
82782.96,953739.3,33275.137
82811.86,953788.0,33275.18
82812.74,953813.94,33275.22
82815.88,953777.75,33275.258
82807.266,953865.94,33275.297
82819.95,953932.2,33275.34
82865.19,954011.25,33275.38
82876.63,954106.9,33275.418
82875.06,954162.5,33275.457
82857.81,954113.6,33275.5
82810.64,954068.9,33275.54
82777.125,954090.94,33275.58
82770.125,954093.2,33275.617
82753.24,954143.4,33275.66
82760.32,954248.0,33275.7
82760.75,954341.94,33275.74
82767.83,954369.75,33275.777
82785.195,954486.4,33275.82
82796.74,954549.7,33275.86
82819.76,954648.06,33275.9
82847.49,954739.56,33275.938
82874.12,954876.06,33275.98
82897.195,955004.8,33276.02
82949.055,955114.5,33276.06
82969.24,955151.06,33276.098
82962.984,955080.25,33276.137
82931.164,955032.1,33276.18
82899.37,955044.9,33276.22
82889.87,955051.6,33276.258
82885.63,955071.3,33276.297
82907.93,955163.2,33276.34
82945.17,955160.3,33276.38
82932.2,955156.06,33276.418
82970.62,955158.25,33276.457
82979.51,955194.0,33276.5
83021.22,955183.9,33276.54
83026.49,955171.4,33276.58
83051.84,955220.44,33276.617
83109.85,955236.4,33276.66
83122.59,955261.75,33276.7
83178.33,955308.3,33276.74
83217.75,955329.4,33276.777
83225.94,955262.6,33276.82
83200.7,955171.3,33276.86
83223.8,955104.3,33276.9
83197.516,955099.8,33276.938
83220.26,955100.94,33276.98
83272.79,955132.2,33277.02
83279.87,955176.4,33277.06
83289.14,955205.8,33277.098
83322.26,955239.9,33277.137
83358.016,955231.8,33277.18
83385.2,955231.4,33277.22
83457.37,955229.9,33277.258
83463.695,955264.44,33277.297
83507.195,955253.0,33277.34
83549.12,955299.7,33277.38
83586.68,955315.7,33277.418
83640.664,955367.4,33277.457
83643.875,955314.1,33277.5
83630.38,955246.06,33277.54
83654.04,955260.1,33277.58
83653.26,955191.0,33277.617
83667.44,955160.75,33277.66
83693.93,955222.5,33277.7
83709.25,955304.06,33277.74
83756.67,955274.25,33277.777
83746.39,955326.75,33277.82
83782.625,955362.9,33277.86
83810.5,955381.75,33277.9
83824.47,955408.8,33277.938
83887.18,955473.06,33277.98
83914.664,955528.0,33278.02
83934.14,955585.3,33278.06
83983.54,955663.2,33278.098
84002.516,955760.4,33278.137
84026.67,955715.75,33278.18
84016.06,955704.6,33278.22
84005.2,955698.44,33278.258
84004.88,955729.75,33278.297
84006.875,955757.94,33278.34
84033.16,955853.44,33278.38
84034.75,955909.6,33278.418
84058.86,955959.44,33278.457
84054.266,956062.1,33278.5
84106.54,956170.9,33278.54
84103.9,956293.8,33278.58
84132.0,956393.3,33278.617
84171.984,956490.8,33278.66
84187.91,956594.9,33278.7
84202.516,956770.75,33278.74
84276.09,956873.6,33278.777
84296.11,956998.25,33278.82
84321.43,957106.1,33278.86
84328.0,957097.5,33278.9
84299.07,957065.0,33278.938
84325.65,957065.7,33278.98
84274.1,957091.75,33279.02
84260.57,957115.6,33279.06
84256.375,957182.75,33279.098
84265.336,957313.1,33279.137
84317.516,957405.44,33279.18
84277.57,957474.4,33279.22
84305.67,957559.3,33279.258
84295.305,957656.3,33279.297
84323.375,957638.75,33279.34
84274.61,957739.75,33279.38
84344.33,957809.3,33279.418
84352.195,957829.06,33279.457
84390.19,957922.1,33279.5
84378.336,958041.2,33279.54
84392.234,958132.4,33279.58
84432.695,958146.3,33279.617
84414.28,958102.2,33279.66
84416.5,958030.6,33279.7
84378.38,958010.8,33279.74
84360.984,958053.7,33279.777
84332.43,958088.0,33279.82
84313.82,958132.6,33279.86
84290.695,958240.3,33279.9
84303.37,958276.25,33279.938
84329.95,958309.2,33279.977
84301.805,958347.56,33280.02
84288.67,958407.4,33280.06
84282.96,958404.2,33280.098
84286.67,958405.5,33280.137
84304.445,958466.75,33280.18
84304.83,958544.4,33280.22
84327.65,958567.94,33280.258
84348.06,958636.9,33280.297
84363.76,958671.0,33280.34
84356.19,958616.6,33280.38
84320.94,958486.25,33280.418
84252.945,958433.5,33280.457
84244.36,958408.1,33280.5
84183.12,958372.25,33280.54
84154.945,958350.0,33280.58
84158.805,958388.6,33280.617
84124.48,958375.5,33280.66
84122.58,958406.56,33280.7
84099.64,958379.75,33280.74
84118.555,958386.75,33280.777
84098.45,958344.75,33280.82
84101.875,958311.1,33280.86
84098.24,958327.0,33280.9
84117.125,958356.56,33280.938
84109.63,958368.4,33280.977
84146.97,958402.9,33281.02
84118.375,958360.25,33281.06
84105.17,958157.9,33281.098
84033.31,958061.8,33281.137
83961.25,957996.8,33281.18
83901.65,957901.44,33281.22
83884.64,957875.3,33281.258
83879.31,957875.06,33281.297
83849.57,957926.6,33281.34
83830.88,957938.7,33281.38
83841.49,957930.44,33281.418
83819.81,957893.9,33281.457
83803.69,957884.0,33281.5
83801.99,957912.9,33281.54
83795.625,957889.2,33281.58
83795.33,957873.0,33281.617
83806.76,957884.7,33281.66
83818.625,957896.2,33281.7
83782.12,957796.75,33281.74
83700.14,957694.5,33281.777
83629.24,957614.06,33281.82
83539.64,957484.9,33281.86
83493.625,957471.7,33281.9
83451.945,957474.8,33281.938
83436.945,957547.2,33281.977
83387.84,957545.6,33282.02
83376.95,957546.1,33282.06
83365.06,957596.1,33282.098
83311.9,957634.3,33282.137
83320.43,957632.6,33282.18
83322.8,957655.7,33282.22
83295.805,957693.5,33282.258
83298.5,957786.0,33282.297
83311.06,957880.6,33282.34
83267.87,957930.2,33282.38
83169.086,957828.7,33282.418
83076.38,957738.5,33282.457
82963.14,957727.4,33282.5
82883.14,957670.5,33282.54
82843.85,957738.4,33282.58
82792.71,957791.6,33282.617
82786.48,957873.2,33282.66
82737.37,957922.3,33282.7
82702.69,957962.1,33282.74
82660.195,958039.06,33282.777
82668.1,958082.56,33282.82
82641.125,958114.25,33282.86
82612.336,958177.9,33282.9
82631.3,958227.2,33282.938
82633.0,958269.3,33282.977
82642.234,958348.6,33283.02
82603.805,958329.75,33283.06
82514.43,958140.0,33283.098
82369.4,958046.1,33283.137
82272.88,957975.5,33283.18
82196.23,957857.0,33283.22
82126.02,957861.8,33283.258
82087.984,957843.5,33283.297
82054.875,957862.7,33283.34
82011.01,957883.4,33283.38
81977.5,957824.7,33283.418
81931.016,957818.06,33283.457
81922.875,957824.9,33283.5
81908.62,957804.75,33283.54
81894.69,957836.4,33283.58
81899.0,957835.94,33283.617
81901.93,957846.2,33283.66
81899.01,957845.6,33283.7
81918.87,957836.8,33283.74
81883.6,957735.1,33283.777
81771.68,957490.7,33283.82
81651.81,957328.9,33283.86
81540.77,957149.7,33283.9
81483.805,957019.25,33283.938
81418.14,956898.7,33283.977
81382.695,956887.6,33284.02
81380.04,956871.0,33284.06
81327.46,956814.3,33284.098
81302.766,956781.06,33284.137
81289.47,956724.25,33284.18
81317.695,956690.6,33284.22
81267.77,956643.3,33284.258
81260.32,956617.3,33284.297
81263.7,956622.3,33284.34
81279.4,956606.9,33284.38
81294.38,956575.9,33284.418
81301.56,956578.4,33284.457
81259.445,956444.2,33284.5
81149.69,956250.0,33284.54
81063.34,956071.9,33284.58
80989.28,955806.0,33284.617
80908.625,955731.06,33284.66
80875.33,955714.06,33284.7
80852.43,955693.44,33284.74
80846.164,955619.25,33284.777
80864.82,955597.7,33284.82
80753.2,955546.3,33284.86
80751.56,955547.0,33284.9
80751.75,955508.94,33284.938
80777.45,955496.8,33284.977
80743.7,955564.7,33285.02
80768.92,955507.94,33285.06
80767.41,955552.3,33285.098
80808.36,955587.75,33285.137
80738.63,955429.75,33285.18
80657.36,955259.06,33285.22
80533.86,955087.44,33285.258
80412.57,954913.9,33285.297
80333.91,954780.3,33285.34
80304.305,954776.94,33285.38
80288.68,954769.9,33285.418
80241.01,954810.1,33285.457
80205.875,954725.5,33285.5
80185.305,954736.4,33285.54
80163.8,954737.0,33285.58
80141.81,954689.7,33285.617
80129.49,954733.7,33285.66
80123.195,954780.0,33285.7
80138.62,954800.0,33285.74
80109.79,954824.75,33285.777
80166.57,954865.2,33285.82
80151.516,954864.4,33285.86
80051.016,954663.6,33285.9
79924.734,954437.75,33285.938
79778.43,954189.0,33285.977
79667.25,953961.94,33286.02
79578.99,953842.7,33286.06
79514.625,953764.5,33286.098
79466.56,953771.6,33286.137
79437.125,953735.2,33286.18
79384.68,953672.94,33286.22
79333.19,953649.8,33286.258
79287.336,953568.25,33286.297
79288.875,953531.1,33286.34
79274.13,953514.3,33286.38
79277.99,953523.06,33286.418
79278.46,953551.7,33286.457
79299.51,953577.0,33286.5
79327.28,953554.0,33286.54
79335.734,953615.8,33286.58
79279.82,953464.3,33286.617
79137.44,953176.44,33286.66
78971.75,952890.44,33286.7
78837.75,952616.44,33286.74
78729.98,952403.4,33286.777
78652.99,952248.4,33286.82
78600.484,952132.94,33286.86
78531.266,952072.25,33286.9
78508.87,951957.56,33286.938
78472.88,951898.1,33286.977
78417.81,951828.44,33287.02
78396.195,951768.25,33287.06
78392.016,951655.9,33287.098
78404.555,951639.56,33287.137
78413.24,951626.75,33287.18
78422.516,951623.56,33287.22
78453.12,951608.4,33287.258
78491.805,951591.5,33287.297
78503.31,951614.75,33287.34
78509.49,951581.2,33287.38
78417.42,951256.75,33287.418
78245.0,950888.06,33287.457
78099.25,950611.3,33287.5
77994.36,950339.5,33287.54
77916.06,950161.5,33287.58
77890.51,950087.7,33287.617
77856.08,950001.25,33287.66
77834.87,949975.44,33287.7
77781.89,949887.0,33287.74
77756.44,949832.7,33287.777
77745.32,949792.4,33287.82
77733.75,949714.6,33287.86
77736.39,949732.7,33287.9
77785.0,949691.44,33287.938
77794.984,949703.75,33287.977
77810.195,949737.1,33288.02
77829.695,949808.4,33288.06
77876.57,949922.94,33288.098
77840.14,949722.9,33288.137
77674.26,949400.75,33288.18
77517.26,949030.1,33288.22
77384.38,948729.25,33288.258
77306.695,948471.7,33288.297
77262.81,948424.6,33288.34
77237.69,948382.06,33288.38
77185.97,948313.6,33288.418
77163.82,948296.25,33288.457
77138.31,948270.2,33288.5
77124.04,948189.8,33288.54
77092.95,948166.94,33288.58
77097.68,948234.4,33288.617
77145.11,948304.06,33288.66
77149.81,948361.9,33288.7
77164.74,948438.5,33288.74
77213.6,948511.56,33288.777
77229.39,948595.9,33288.816
77203.02,948579.1,33288.86
77082.26,948264.5,33288.9
76881.88,947906.75,33288.938
76745.67,947594.8,33288.977
76608.055,947373.75,33289.02
76542.67,947237.75,33289.06
76495.195,947202.44,33289.098
76462.12,947187.1,33289.137
76442.16,947194.25,33289.18
76388.695,947202.6,33289.22
76369.516,947170.94,33289.258
76374.08,947165.3,33289.297
76386.44,947188.25,33289.34
76402.55,947227.75,33289.38
76431.12,947267.44,33289.418
76443.64,947342.7,33289.457
76518.05,947413.4,33289.5
76537.63,947447.94,33289.54
76591.56,947553.9,33289.58
76635.85,947569.0,33289.617
76514.24,947249.56,33289.66
76353.67,946840.0,33289.7
76166.5,946494.7,33289.74
76038.23,946175.2,33289.777
75914.08,945931.9,33289.82
75866.63,945830.56,33289.86
75835.27,945780.6,33289.9
75826.984,945715.4,33289.938
75785.516,945621.75,33289.977
75766.44,945562.2,33290.02
75754.45,945514.2,33290.06
75779.805,945496.5,33290.098
75798.625,945488.9,33290.137
75850.875,945514.6,33290.18
75896.14,945549.9,33290.22
75959.016,945593.0,33290.258
75999.9,945656.4,33290.297
76070.0,945637.9,33290.34
76137.5,945682.75,33290.38
76200.32,945701.44,33290.418
76158.46,945467.9,33290.457
76026.445,945074.44,33290.5
75880.18,944699.6,33290.54
75772.555,944383.1,33290.58
75700.2,944177.2,33290.617
75679.695,944110.0,33290.66
75693.0,944111.2,33290.7
75693.31,944078.2,33290.74
75684.07,944049.9,33290.777
75697.45,944011.06,33290.816
75618.78,943964.0,33290.86
75727.12,943969.0,33290.9
75788.49,944018.9,33290.938
75833.31,944115.75,33290.977
75892.39,944173.94,33291.02
75962.82,944270.25,33291.06
76012.984,944352.06,33291.098
76098.305,944426.94,33291.137
76162.31,944522.75,33291.18
76205.18,944499.5,33291.22
76055.88,944231.3,33291.258
75937.09,943940.0,33291.297
75834.22,943691.7,33291.34
75736.83,943501.75,33291.38
75711.07,943425.0,33291.418
75732.64,943501.8,33291.457
75742.62,943507.94,33291.5
75753.55,943515.2,33291.54
75751.38,943523.25,33291.58
75759.18,943539.3,33291.617
75804.42,943606.4,33291.66
75833.25,943689.56,33291.7
75889.516,943787.8,33291.74
75981.05,943890.44,33291.777
76030.12,944019.6,33291.816
76093.66,944108.5,33291.86
76179.68,944252.4,33291.9
76238.27,944386.75,33291.938
76339.07,944543.0,33291.977
76349.54,944434.5,33292.02
76209.266,944090.8,33292.06
76098.875,943769.4,33292.098
75982.805,943484.5,33292.137
75914.75,943315.5,33292.18
75878.945,943209.7,33292.22
75898.664,943187.0,33292.258
75889.51,943223.7,33292.297
75902.766,943186.3,33292.34
75917.37,943171.2,33292.38
75927.766,943205.44,33292.418
75969.82,943191.2,33292.457
75998.08,943167.44,33292.5
76064.01,943229.5,33292.54
76151.09,943288.5,33292.58
76207.66,943374.9,33292.617
76254.34,943450.6,33292.66
76349.48,943536.0,33292.7
76473.04,943593.44,33292.74
76548.0,943644.7,33292.777
76623.47,943755.56,33292.816
76563.64,943584.56,33292.86
76562.5,943215.5,33292.9
76425.57,942870.3,33292.938
76379.1,942579.1,33292.977
76325.93,942341.8,33293.02
76305.39,942255.06,33293.06
76332.52,942287.3,33293.098
76361.26,942302.2,33293.137
76384.93,942304.0,33293.18
76407.81,942242.2,33293.22
76446.19,942258.7,33293.258
76489.445,942277.5,33293.297
76539.08,942283.9,33293.34
76601.4,942409.25,33293.38
76697.24,942444.5,33293.418
76762.01,942583.44,33293.457
76855.305,942676.2,33293.5
76931.31,942795.3,33293.54
76987.445,942844.6,33293.58
77104.61,942962.2,33293.617
77073.39,942818.4,33293.66
76999.734,942512.7,33293.7
76879.836,942285.3,33293.74
76841.74,942057.8,33293.777
76822.18,941934.2,33293.816
76813.45,941918.8,33293.86
76877.055,942000.1,33293.9
76918.11,942030.75,33293.938
76908.02,942063.75,33293.977
76935.5,942073.1,33294.02
76952.38,942114.0,33294.06
77017.38,942169.25,33294.098
77082.8,942295.8,33294.137
77154.55,942457.8,33294.18
77230.67,942541.44,33294.22
77273.41,942642.25,33294.258
77346.79,942832.1,33294.297
77446.805,943010.1,33294.34
77525.125,943109.25,33294.38
77599.84,943280.94,33294.418
77594.234,943179.0,33294.457
77470.84,942844.8,33294.5
77379.13,942599.44,33294.54
77321.14,942378.44,33294.58
77280.84,942231.4,33294.617
77308.43,942211.6,33294.66
77342.914,942296.3,33294.7
77361.305,942374.9,33294.74
77369.7,942440.44,33294.777
77414.36,942439.5,33294.816
77429.58,942481.5,33294.86
77499.8,942563.56,33294.9
77542.17,942646.1,33294.938
77598.64,942769.44,33294.977
77668.39,942881.8,33295.02
77767.45,942968.94,33295.06
77837.63,943074.56,33295.098
77948.85,943169.7,33295.137
78030.555,943210.4,33295.18
78095.89,943281.8,33295.22
78152.05,943223.1,33295.258
78056.516,942930.0,33295.297
77966.95,942599.75,33295.34
77925.484,942306.3,33295.38
77878.39,942090.1,33295.418
77890.805,941942.25,33295.457
77904.76,941937.8,33295.5
77917.46,941979.3,33295.54
77934.08,941952.4,33295.58
77983.695,941914.9,33295.617
78008.875,941946.1,33295.66
78066.734,941933.5,33295.7
78117.44,941873.4,33295.74
78186.61,941876.5,33295.777
78226.96,941948.3,33295.816
78308.13,941999.6,33295.86
78407.3,942103.2,33295.9
78459.82,942151.25,33295.938
78540.64,942189.5,33295.977
78614.63,942301.56,33296.02
78683.82,942278.06,33296.06
78670.0,942029.56,33296.098
78533.29,941789.6,33296.137
78485.13,941605.0,33296.18
78471.914,941402.3,33296.22
78474.875,941320.0,33296.258
78465.22,941473.75,33296.297
78515.26,941577.2,33296.34
78562.26,941624.4,33296.38
78590.92,941761.25,33296.418
78624.38,941864.2,33296.457
78603.02,942016.1,33296.5
78678.43,942091.3,33296.54
78738.62,942214.44,33296.58
78817.81,942411.4,33296.617
78867.45,942592.9,33296.66
78966.59,942824.25,33296.7
79025.93,943023.1,33296.74
79101.44,943208.4,33296.777
79089.57,943257.0,33296.816
79026.03,943051.3,33296.86
78945.3,942900.4,33296.9
78893.125,942770.0,33296.938
78851.65,942744.4,33296.977
78883.05,942764.4,33297.02
78902.81,942899.06,33297.06
78893.52,943031.56,33297.098
78936.25,943118.1,33297.137
78968.01,943225.2,33297.18
78988.75,943241.6,33297.22
79013.64,943345.6,33297.258
79094.914,943442.9,33297.297
79129.7,943602.44,33297.34
79194.06,943735.25,33297.38
79249.01,943875.25,33297.418
79307.195,943979.8,33297.457
79391.92,944106.44,33297.5
79463.06,944297.75,33297.54
79540.54,944407.8,33297.58
79512.375,944231.25,33297.617
79429.01,943966.3,33297.66
79353.516,943725.0,33297.7
79303.82,943547.25,33297.74
79275.57,943368.8,33297.777
79295.68,943318.94,33297.816
79302.195,943370.94,33297.86
79341.86,943422.3,33297.9
79377.984,943390.1,33297.938
79374.88,943419.25,33297.977
79418.62,943403.7,33298.02
79461.39,943423.3,33298.06
79501.32,943468.06,33298.098
79571.87,943541.5,33298.137
79647.555,943629.0,33298.18
79675.29,943663.75,33298.22
79777.94,943764.2,33298.258
79850.3,943840.06,33298.297
79920.68,943946.7,33298.34
79968.875,944084.25,33298.38
80047.85,944176.6,33298.418
80019.49,943964.44,33298.457
79927.39,943805.9,33298.5
79892.266,943600.6,33298.54
79891.13,943457.75,33298.58
79879.95,943408.2,33298.617
79912.59,943522.7,33298.66
79965.08,943564.94,33298.7
79995.97,943649.06,33298.74
80022.484,943715.06,33298.777
80051.11,943838.8,33298.816
80087.914,943954.56,33298.86
80126.195,944110.9,33298.9
80189.18,944295.7,33298.938
80263.54,944461.6,33298.977
80327.3,944633.2,33299.02
80367.875,944838.8,33299.06
80425.88,945057.3,33299.098
80510.305,945261.9,33299.137
80560.516,945373.0,33299.18
80539.26,945283.2,33299.22
80484.36,945117.9,33299.258
80411.94,945030.9,33299.297
80389.82,944930.7,33299.34
80404.18,944921.7,33299.38
80415.305,944982.1,33299.418
80450.625,945119.2,33299.457
80470.9,945141.3,33299.5
80511.625,945225.2,33299.54
80527.305,945294.06,33299.58
80578.23,945353.6,33299.617
80637.836,945412.9,33299.66
80683.36,945464.06,33299.7
80731.86,945604.0,33299.74
80788.695,945719.8,33299.777
80860.88,945860.8,33299.816
80918.33,945978.5,33299.86
80977.266,946060.94,33299.9
81041.336,946161.44,33299.938
81128.05,946289.06,33299.977
81125.68,946196.5,33300.02
81059.695,945949.9,33300.06
81024.56,945827.3,33300.098
80975.7,945653.4,33300.137
80983.88,945465.56,33300.18
81005.83,945474.3,33300.22
81011.89,945519.94,33300.258
81048.69,945581.1,33300.297
81070.99,945581.4,33300.34
81108.914,945669.75,33300.38
81134.64,945709.2,33300.418
81181.93,945777.5,33300.457
81223.32,945872.0,33300.5
81272.01,946005.25,33300.54
81318.81,946161.06,33300.58
81389.81,946341.4,33300.617
81430.57,946442.5,33300.66
81478.33,946580.5,33300.7
81553.99,946738.8,33300.74
81585.82,946825.3,33300.777
81531.63,946714.25,33300.816
81497.93,946593.7,33300.86
81432.89,946485.75,33300.9
81439.0,946472.44,33300.938
81426.055,946416.0,33300.977
81437.89,946531.44,33301.02
81480.64,946612.56,33301.06
81501.32,946731.44,33301.098
81502.4,946846.4,33301.137
81549.88,946958.25,33301.18
81576.484,947089.5,33301.22
81616.18,947207.75,33301.258
81676.875,947344.94,33301.297
81685.35,947486.8,33301.34
81789.93,947661.44,33301.38
81852.695,947765.06,33301.418
81904.58,947890.56,33301.457
81938.2,948022.94,33301.5
82001.69,948176.9,33301.54
82031.74,948248.8,33301.58
82010.63,948096.8,33301.617
81961.49,947879.75,33301.66
81898.25,947775.44,33301.7
81868.125,947639.2,33301.74
81886.984,947586.4,33301.777
81873.82,947654.3,33301.816
81892.74,947709.75,33301.86
81887.95,947747.56,33301.9
81925.625,947812.3,33301.938
81945.95,947816.06,33301.977
81973.305,947903.25,33302.02
81994.945,947925.2,33302.06
82029.33,947994.75,33302.098
82117.59,948049.2,33302.137
82125.64,948128.06,33302.18
82180.13,948222.75,33302.22
82222.0,948318.3,33302.258
82299.25,948392.75,33302.297
82370.05,948504.56,33302.34
82409.68,948556.8,33302.38
82437.18,948587.56,33302.418
82387.805,948333.56,33302.457
82300.17,948192.0,33302.5
82270.266,948000.25,33302.54
82247.32,947854.6,33302.58
82263.375,947762.25,33302.617
82286.57,947804.7,33302.656
82304.51,947828.8,33302.7
82298.14,947713.56,33302.74
82319.85,947612.8,33302.777
82331.875,947571.06,33302.816
82351.25,947658.44,33302.86
82385.27,947771.25,33302.9
82447.8,947881.3,33302.938
82494.69,947963.2,33302.977
82541.81,948040.44,33303.02
82587.445,948168.75,33303.06
82632.5,948255.25,33303.098
82707.03,948409.6,33303.137
82731.93,948545.0,33303.18
82720.0,948427.94,33303.22
82678.06,948360.1,33303.258
82631.19,948269.2,33303.297
82595.45,948158.3,33303.34
82591.375,948082.9,33303.38
82616.305,948186.9,33303.418
82613.64,948308.5,33303.457
82657.195,948440.75,33303.5
82648.64,948506.7,33303.54
82672.77,948655.56,33303.58
82699.5,948771.5,33303.617
82735.35,948802.94,33303.656
82769.35,948948.94,33303.7
82810.21,949102.9,33303.74
82835.0,949362.5,33303.777
82869.0,949498.94,33303.816
82943.61,949627.56,33303.86
82987.5,949755.6,33303.9
83002.91,949859.7,33303.938
82956.82,949732.06,33303.977
82885.82,949607.2,33304.02
82824.82,949521.4,33304.06
82800.67,949406.94,33304.098
82770.695,949373.1,33304.137
82780.64,949442.0,33304.18
82801.87,949508.44,33304.22
82797.67,949594.75,33304.258
82769.89,949664.2,33304.297
82804.74,949720.7,33304.34
82820.73,949741.2,33304.38
82842.61,949800.75,33304.418
82848.64,949862.5,33304.457
82890.5,949977.1,33304.5
82945.375,950073.94,33304.54
82985.31,950115.8,33304.58
83032.555,950211.6,33304.617
83026.77,950291.7,33304.656
83074.88,950341.75,33304.7
83031.055,950152.8,33304.74
82970.42,949955.5,33304.777
82875.23,949775.4,33304.816
82857.99,949574.1,33304.86
82847.164,949459.56,33304.9
82820.14,949463.06,33304.938
82846.69,949467.8,33304.977
82831.26,949507.25,33305.02
82831.945,949535.3,33305.06
82833.945,949561.25,33305.098
82847.3,949548.7,33305.137
82862.77,949527.06,33305.18
82886.71,949606.5,33305.22
82929.89,949645.1,33305.258
82956.31,949733.0,33305.297
82993.375,949807.9,33305.34
83038.2,949862.06,33305.38
83118.66,949933.6,33305.418
83070.19,949769.3,33305.457
82984.375,949655.8,33305.5
82940.17,949480.1,33305.54
82874.89,949322.2,33305.58
82870.01,949245.25,33305.617
82859.81,949246.3,33305.656
82870.39,949352.25,33305.7
82888.32,949381.3,33305.74
82869.516,949428.94,33305.777
82878.18,949469.4,33305.816
82885.625,949493.44,33305.86
82911.62,949585.94,33305.9
82910.21,949684.5,33305.938
82959.3,949851.44,33305.977
82989.67,949978.25,33306.02
83015.08,950121.06,33306.06
83048.555,950223.6,33306.098
83038.234,950279.3,33306.137
82970.37,950186.4,33306.18
82874.125,950104.9,33306.22
82821.26,950031.4,33306.258
82780.4,949995.3,33306.297
82774.555,950002.44,33306.34
82798.67,950073.0,33306.38
82789.55,950201.5,33306.418
82778.8,950330.7,33306.457
82765.33,950395.4,33306.5
82748.4,950516.9,33306.54
82769.58,950594.44,33306.58
82807.19,950709.9,33306.617
82858.69,950839.56,33306.656
82875.12,950974.3,33306.7
82920.19,951092.44,33306.74
82948.06,951202.8,33306.777
82981.92,951319.4,33306.816
82964.51,951343.0,33306.86
82869.65,951188.1,33306.9
82850.055,951043.1,33306.938
82774.055,950902.75,33306.977
82749.625,950823.94,33307.02
82698.07,950768.5,33307.06
82690.08,950772.94,33307.098
82680.33,950813.06,33307.137
82702.055,950865.0,33307.18
82713.57,950915.56,33307.22
82731.055,950999.25,33307.258
82744.17,951044.1,33307.297
82765.94,951155.7,33307.34
82782.266,951272.94,33307.38
82847.8,951364.2,33307.418
82872.58,951424.5,33307.457
82906.35,951553.5,33307.5
82961.57,951622.6,33307.54
83012.445,951792.0,33307.58
83043.42,951785.0,33307.617
82982.195,951652.56,33307.656
82932.695,951536.7,33307.7
82882.445,951377.06,33307.74
82854.64,951255.0,33307.777
82857.58,951211.94,33307.816
82870.44,951279.6,33307.86
82879.31,951345.25,33307.9
82894.336,951362.5,33307.938
82908.18,951455.4,33307.977
82911.46,951498.3,33308.02
82947.44,951525.94,33308.06
82988.57,951565.4,33308.098
83013.73,951613.75,33308.137
83058.89,951742.44,33308.18
83128.96,951831.5,33308.22
83159.0,951942.44,33308.258
83203.99,952035.56,33308.297
83259.29,952129.6,33308.34
83348.836,952235.0,33308.38
83299.11,952201.44,33308.418
83248.83,952011.06,33308.457
83208.01,951955.75,33308.5
83219.23,951791.5,33308.54
83150.5,951729.56,33308.58
83223.44,951793.6,33308.617
83233.31,951878.5,33308.656
83254.44,951949.8,33308.7
83286.41,951997.94,33308.74
83272.234,952105.3,33308.777
83306.13,952176.9,33308.816
83374.234,952269.4,33308.86
83405.914,952390.7,33308.9
83432.25,952522.06,33308.938
83461.945,952684.5,33308.977
83509.68,952758.5,33309.02
83548.695,952931.3,33309.06
83607.93,953076.6,33309.098
83624.484,953210.3,33309.137
83599.305,953171.06,33309.18
83579.17,953077.4,33309.22
83505.14,953024.6,33309.258
83494.195,952937.2,33309.297
83501.74,952986.7,33309.34
83517.805,953082.7,33309.38
83522.88,953145.5,33309.418
83557.24,953241.75,33309.457
83562.83,953379.56,33309.5
83584.31,953433.25,33309.54
83589.33,953498.8,33309.58
83634.914,953532.1,33309.617
83666.18,953623.2,33309.656
83688.695,953758.2,33309.7
83720.66,953857.56,33309.74
83796.86,953920.56,33309.777
83836.09,954069.2,33309.816
83850.516,954131.56,33309.86
83887.58,954232.94,33309.9
83902.12,954292.75,33309.938
83849.69,954130.06,33309.977
83790.83,953972.1,33310.02
83762.3,953858.0,33310.06
83721.65,953718.44,33310.098
83696.13,953674.5,33310.137
83690.31,953736.0,33310.18
83685.8,953794.9,33310.22
83692.5,953828.2,33310.258
83696.68,953880.56,33310.297
83714.05,953879.0,33310.34
83726.37,953874.7,33310.38
83739.23,953872.5,33310.418
83747.555,953964.2,33310.457
83783.99,954078.94,33310.5
83805.08,954157.1,33310.54
83818.55,954176.56,33310.58
83877.5,954282.6,33310.617
83898.38,954317.5,33310.656
83954.5,954379.06,33310.7
83982.31,954447.06,33310.74
83941.39,954356.4,33310.777
83898.125,954205.4,33310.816
83838.29,954034.44,33310.86
83769.19,953844.2,33310.9
83737.99,953712.1,33310.938
83722.875,953653.56,33310.977
83717.2,953683.8,33311.02
83711.37,953660.3,33311.06
83688.64,953612.5,33311.098
83681.33,953544.75,33311.137
83696.55,953450.1,33311.18
83665.91,953309.75,33311.22
83709.23,953332.2,33311.258
83716.83,953419.94,33311.297
83725.52,953523.3,33311.34
83784.19,953635.25,33311.38
83775.94,953692.4,33311.418
83821.29,953709.6,33311.457
83833.68,953815.5,33311.496
83868.35,953892.56,33311.54
83859.79,953901.5,33311.58
83787.24,953780.3,33311.617
83677.77,953706.25,33311.656
83614.625,953532.3,33311.7
83561.02,953425.0,33311.74
83525.51,953488.4,33311.777
83519.88,953590.6,33311.816
83503.7,953666.56,33311.86
83521.375,953740.06,33311.9
83483.06,953807.5,33311.938
83461.38,953820.9,33311.977
83441.01,953878.8,33312.02
83429.83,954002.94,33312.06
83437.2,954104.56,33312.098
83472.984,954263.6,33312.137
83473.37,954320.7,33312.18
83495.39,954440.44,33312.22
83537.47,954525.4,33312.258
83551.99,954647.4,33312.297
83547.125,954664.1,33312.34
83485.49,954535.5,33312.38
83357.95,954361.44,33312.418
83234.516,954216.9,33312.457
83167.19,954050.3,33312.496
83095.625,953907.4,33312.54
83056.99,953935.2,33312.58
83010.305,953984.9,33312.617
82999.53,954008.8,33312.656
82944.01,954038.1,33312.7
82899.51,954023.2,33312.74
82887.07,954023.7,33312.777
82877.69,954076.56,33312.816
82874.43,954108.06,33312.86
82877.57,954166.3,33312.9
82889.83,954246.94,33312.938
82889.07,954248.1,33312.977
82906.195,954312.1,33313.02
82936.5,954334.4,33313.06
82964.49,954390.94,33313.098
82982.17,954465.06,33313.137
82977.17,954401.8,33313.18
82858.88,954170.5,33313.22
82755.36,953943.1,33313.258
82621.01,953691.8,33313.297
82521.14,953487.1,33313.34
82456.31,953311.94,33313.38
82420.625,953292.4,33313.418
82392.7,953303.25,33313.457
82365.26,953294.2,33313.496
82352.055,953265.0,33313.54
82313.44,953265.9,33313.58
82275.91,953242.6,33313.617
82270.84,953230.1,33313.656
82291.06,953291.5,33313.7
82303.484,953255.3,33313.74
82335.61,953298.25,33313.777
82342.86,953385.75,33313.816
82349.734,953414.9,33313.86
82359.86,953431.44,33313.9
82384.85,953547.25,33313.938
82373.35,953494.0,33313.977
82256.516,953296.7,33314.02
82183.52,953174.1,33314.06
82033.086,953031.8,33314.098
81980.82,952920.44,33314.137
81932.695,952894.94,33314.18
81908.25,952913.6,33314.22
81873.93,952971.56,33314.258
81863.016,953058.06,33314.297
81830.19,953110.3,33314.34
81793.2,953211.44,33314.38
81836.336,953304.94,33314.418
81819.24,953489.4,33314.457
81817.19,953643.4,33314.496
81831.45,953748.94,33314.54
81840.52,953876.6,33314.58
81909.72,954020.94,33314.617
81919.7,954067.75,33314.656
81952.414,954197.44,33314.7
81956.03,954217.0,33314.74
81868.586,954070.5,33314.777
81775.414,953860.7,33314.816
81622.445,953671.75,33314.86
81540.24,953487.1,33314.9
81488.69,953422.94,33314.938
81463.26,953427.2,33314.977
81446.79,953414.0,33315.02
81426.21,953361.1,33315.06
81381.82,953395.5,33315.098
81364.21,953363.0,33315.137
81371.37,953335.8,33315.18
81365.12,953297.6,33315.22
81369.75,953322.94,33315.258
81386.21,953423.7,33315.297
81435.375,953450.94,33315.34
81468.25,953485.5,33315.38
81513.3,953486.2,33315.418
81541.88,953558.25,33315.457
81546.4,953545.75,33315.496
81612.63,953611.4,33315.54
81588.445,953554.44,33315.58
81511.65,953356.5,33315.617
81406.375,953143.7,33315.656
81310.81,952874.9,33315.7
81252.26,952676.8,33315.74
81205.59,952583.56,33315.777
81193.09,952603.3,33315.816
81192.12,952659.56,33315.86
81179.44,952642.6,33315.9
81162.125,952696.44,33315.938
81165.63,952699.2,33315.977
81171.234,952660.8,33316.02
81170.875,952709.7,33316.06
81184.15,952790.25,33316.098
81235.1,952863.8,33316.137
81245.16,952946.4,33316.18
81297.11,953048.06,33316.22
81349.555,953162.44,33316.258
81358.2,953275.1,33316.297
81419.48,953361.5,33316.34
81386.18,953235.6,33316.38
81271.734,953100.0,33316.418
81177.42,952965.8,33316.457
81086.69,952836.6,33316.496
81047.0,952732.94,33316.54
81034.17,952762.56,33316.58
81043.43,952879.94,33316.617
81005.336,952972.94,33316.656
80999.87,953049.7,33316.7
80977.82,953062.2,33316.74
80978.375,953145.5,33316.777
81007.06,953201.5,33316.816
81013.195,953272.3,33316.86
81049.05,953348.6,33316.9
81074.14,953439.3,33316.938
81109.95,953547.2,33316.977
81167.0,953643.9,33317.02
81210.25,953736.94,33317.06
81246.484,953842.0,33317.098
81277.38,953878.8,33317.137
81274.89,953849.6,33317.18
81211.1,953630.25,33317.22
81081.375,953457.56,33317.258
80985.945,953249.1,33317.297
80942.43,953083.25,33317.34
80889.766,953054.1,33317.38
80867.45,953058.4,33317.418
80846.82,953124.25,33317.457
80848.805,953085.4,33317.496
80813.336,953072.6,33317.54
80817.33,953054.5,33317.58
80832.195,953082.7,33317.617
80841.6,953072.44,33317.656
80876.0,953148.06,33317.7
80883.18,953226.94,33317.74
80938.43,953342.6,33317.777
80952.82,953362.1,33317.816
81018.74,953436.6,33317.86
81051.62,953553.75,33317.9
81084.56,953572.5,33317.938
81119.336,953701.44,33317.977
81114.19,953579.94,33318.02
81017.87,953343.8,33318.06
80929.19,953096.4,33318.098
80836.15,952833.06,33318.137
80787.81,952681.94,33318.18
80759.945,952574.0,33318.22
80743.19,952602.06,33318.258
80728.555,952585.9,33318.297
80696.71,952604.25,33318.34
80703.01,952600.25,33318.38
80692.02,952561.2,33318.418
80725.05,952548.25,33318.457
80719.76,952588.2,33318.496
80752.79,952627.56,33318.54
80773.91,952748.8,33318.58
80789.266,952823.25,33318.617
80851.01,952913.9,33318.656
80894.06,952957.94,33318.7
80936.484,953044.06,33318.74
80961.305,953104.0,33318.777
81027.77,953178.06,33318.816
80942.555,952990.9,33318.86
80833.45,952865.4,33318.9
80734.74,952622.1,33318.938
80681.055,952475.2,33318.977
80647.305,952382.9,33319.02
80648.17,952411.3,33319.06
80631.32,952461.7,33319.098
80632.734,952494.75,33319.137
80606.055,952522.5,33319.18
80606.68,952513.56,33319.22
80571.88,952540.4,33319.258
80620.42,952575.06,33319.297
80627.94,952656.06,33319.34
80679.125,952799.3,33319.38
80692.266,952905.0,33319.418
80746.01,952991.6,33319.457
80798.06,953094.0,33319.496
80825.69,953212.25,33319.54
80861.62,953340.0,33319.58
80929.805,953428.06,33319.617
80948.25,953455.5,33319.656
80868.74,953264.4,33319.7
80748.445,953085.5,33319.74
80634.83,952810.75,33319.777
80569.086,952610.5,33319.816
80510.555,952468.6,33319.86
80493.24,952454.06,33319.9
80486.87,952486.6,33319.938
80481.06,952495.25,33319.977
80471.68,952514.1,33320.02
80516.44,952480.9,33320.06
80443.37,952441.3,33320.098
80468.914,952447.8,33320.137
80464.125,952440.9,33320.18
80502.375,952512.8,33320.22
80523.7,952553.56,33320.258
80591.766,952633.5,33320.297
80623.68,952642.1,33320.34
80675.75,952735.1,33320.38
80712.82,952781.1,33320.418
80820.26,952801.0,33320.457
80818.766,952862.44,33320.496
80779.94,952699.6,33320.54
80704.37,952467.94,33320.58
80597.93,952229.75,33320.617
80501.016,951961.0,33320.656
80509.54,951779.9,33320.7
80473.54,951751.44,33320.74
80480.125,951756.06,33320.777
80481.09,951737.6,33320.816
80460.375,951743.75,33320.86
80455.51,951737.7,33320.9
80456.0,951729.0,33320.938
80485.664,951757.94,33320.977
80494.0,951825.75,33321.02
80594.64,951878.75,33321.06
80584.09,952061.5,33321.098
80610.45,952093.56,33321.137
80654.14,952220.06,33321.18
80701.57,952339.9,33321.22
80736.9,952397.2,33321.258
80777.26,952474.06,33321.297
80718.695,952345.3,33321.34
80640.94,952172.94,33321.38
80540.016,951964.2,33321.418
80516.34,951778.5,33321.457
80454.57,951646.06,33321.496
80436.5,951688.06,33321.54
80459.8,951724.56,33321.58
80421.27,951785.75,33321.617
80446.41,951838.56,33321.656
80409.07,951916.44,33321.7
80416.19,951923.94,33321.74
80419.32,951982.56,33321.777
80442.945,952041.7,33321.816
80498.05,952118.94,33321.86
80547.49,952245.4,33321.9
80569.81,952342.6,33321.938
80630.12,952421.75,33321.977
80652.4,952501.75,33322.02
80709.37,952551.6,33322.06
80778.86,952626.75,33322.098
80770.375,952655.56,33322.137
80720.33,952491.3,33322.18
80645.92,952204.06,33322.22
80521.66,951935.25,33322.258
80463.89,951720.06,33322.297
80415.89,951533.8,33322.34
80381.64,951506.3,33322.38
80391.06,951572.2,33322.418
80370.72,951473.0,33322.457
80397.42,951433.2,33322.496
80367.76,951460.75,33322.54
80381.42,951422.7,33322.58
80403.18,951417.4,33322.617
80404.9,951474.4,33322.656
80448.92,951509.94,33322.7
80492.94,951550.06,33322.74
80517.83,951629.4,33322.777
80573.2,951699.3,33322.816
80648.37,951758.5,33322.86
80676.58,951801.6,33322.9
80736.0,951890.4,33322.938
80730.38,951859.3,33322.977
80655.65,951636.6,33323.02
80590.56,951403.1,33323.06
80523.69,951111.1,33323.098
80458.016,950913.06,33323.137
80434.125,950750.25,33323.18
80430.76,950735.75,33323.22
80415.59,950724.5,33323.258
80432.625,950658.56,33323.297
80428.18,950603.4,33323.34
80434.87,950628.06,33323.38
80467.414,950620.56,33323.418
80461.24,950632.25,33323.457
80508.88,950779.5,33323.496
80530.82,950838.56,33323.54
80580.25,950948.06,33323.58
80614.19,951087.4,33323.617
80651.08,951228.6,33323.656
80695.57,951280.94,33323.7
80768.555,951401.2,33323.74
80766.67,951383.75,33323.777
80672.77,951188.06,33323.816
80601.82,950982.7,33323.86
80529.94,950779.06,33323.9
80483.63,950651.75,33323.938
80447.445,950684.25,33323.977
80466.05,950763.9,33324.02
80462.555,950899.25,33324.06
80457.95,950967.44,33324.098
80459.266,950957.4,33324.137
80454.33,950995.94,33324.18
80477.875,951018.6,33324.22
80510.016,951104.06,33324.258
80522.76,951229.5,33324.297
80597.805,951346.3,33324.336
80597.484,951460.9,33324.38
80695.875,951583.75,33324.418
80731.07,951634.9,33324.457
80777.67,951778.44,33324.496
80859.34,951874.5,33324.54
80884.67,951955.4,33324.58
80813.27,951726.75,33324.617
80751.37,951438.3,33324.656
80662.45,951146.5,33324.7
80598.63,950889.4,33324.74
80541.02,950720.0,33324.777
80520.47,950677.4,33324.816
80540.61,950724.8,33324.86
80546.31,950699.2,33324.9
80534.0,950667.3,33324.938
